timestamp_ms,ecg_mV,ppg_au,pcg_au,spo2_pct,temp_c
1711780800000,0.0000,0.4509,0.0300,98.00,36.60
1711780800004,0.0009,0.4563,0.0353,98.00,36.60
1711780800008,0.0018,0.4618,0.0389,98.00,36.60
1711780800012,0.0027,0.4674,0.0400,98.00,36.60
1711780800016,0.0036,0.4731,0.0380,98.00,36.60
1711780800020,0.0045,0.4788,0.0337,98.00,36.60
1711780800024,0.0054,0.4846,0.0282,98.00,36.60
1711780800028,0.0063,0.4905,0.0233,98.00,36.60
1711780800032,0.0072,0.4964,0.0204,98.00,36.60
1711780800036,0.0080,0.5024,0.0203,98.00,36.60
1711780800040,0.0089,0.5084,0.0232,98.01,36.60
1711780800044,0.0096,0.5144,0.0280,98.01,36.60
1711780800048,0.0102,0.5204,0.0334,98.01,36.60
1711780800052,0.0103,0.5264,0.0379,98.01,36.60
1711780800056,0.0095,0.5324,0.0399,98.01,36.60
1711780800060,0.0069,0.5384,0.0391,98.01,36.60
1711780800064,0.0015,0.5443,0.0355,98.01,36.60
1711780800068,-0.0077,0.5503,0.0304,98.01,36.60
1711780800072,-0.0213,0.5562,0.0254,98.01,36.60
1711780800076,-0.0383,0.5620,0.0225,98.01,36.60
1711780800080,-0.0564,0.5678,0.0236,98.01,36.60
1711780800084,-0.0716,0.5736,0.0304,98.01,36.60
1711780800088,-0.0794,0.5793,0.0442,98.01,36.60
1711780800092,-0.0751,0.5849,0.0653,98.01,36.60
1711780800096,-0.0504,0.5904,0.0923,98.01,36.60
1711780800100,0.0124,0.5958,0.1207,98.01,36.60
1711780800104,0.1440,0.6012,0.1440,98.01,36.60
1711780800108,0.3713,0.6065,0.1552,98.01,36.60
1711780800112,0.6732,0.6116,0.1504,98.01,36.60
1711780800116,0.9502,0.6167,0.1310,98.02,36.60
1711780800120,1.0674,0.6217,0.1035,98.02,36.60
1711780800124,0.9609,0.6265,0.0759,98.02,36.60
1711780800128,0.6967,0.6313,0.0547,98.02,36.60
1711780800132,0.4110,0.6359,0.0424,98.02,36.60
1711780800136,0.2030,0.6404,0.0381,98.02,36.60
1711780800140,0.0913,0.6448,0.0384,98.02,36.60
1711780800144,0.0458,0.6491,0.0400,98.02,36.60
1711780800148,0.0315,0.6532,0.0404,98.02,36.60
1711780800152,0.0282,0.6572,0.0384,98.02,36.60
1711780800156,0.0278,0.6611,0.0342,98.02,36.60
1711780800160,0.0280,0.6649,0.0288,98.02,36.60
1711780800164,0.0283,0.6685,0.0237,98.02,36.60
1711780800168,0.0286,0.6720,0.0206,98.02,36.60
1711780800172,0.0289,0.6754,0.0202,98.02,36.60
1711780800176,0.0291,0.6787,0.0228,98.02,36.60
1711780800180,0.0293,0.6818,0.0275,98.02,36.60
1711780800184,0.0295,0.6848,0.0330,98.02,36.60
1711780800188,0.0296,0.6877,0.0375,98.02,36.60
1711780800192,0.0298,0.6905,0.0399,98.03,36.60
1711780800196,0.0299,0.6932,0.0393,98.03,36.60
1711780800200,0.0300,0.6957,0.0359,98.03,36.60
1711780800204,0.0300,0.6981,0.0308,98.03,36.60
1711780800208,0.0300,0.7004,0.0254,98.03,36.60
1711780800212,0.0301,0.7026,0.0214,98.03,36.60
1711780800216,0.0301,0.7047,0.0200,98.03,36.60
1711780800220,0.0301,0.7067,0.0216,98.03,36.60
1711780800224,0.0302,0.7086,0.0256,98.03,36.60
1711780800228,0.0304,0.7103,0.0310,98.03,36.60
1711780800232,0.0308,0.7120,0.0361,98.03,36.60
1711780800236,0.0314,0.7136,0.0393,98.03,36.60
1711780800240,0.0324,0.7151,0.0398,98.03,36.60
1711780800244,0.0341,0.7165,0.0374,98.03,36.60
1711780800248,0.0365,0.7178,0.0327,98.03,36.60
1711780800252,0.0399,0.7191,0.0273,98.03,36.60
1711780800256,0.0447,0.7202,0.0226,98.03,36.60
1711780800260,0.0511,0.7213,0.0202,98.03,36.60
1711780800264,0.0594,0.7223,0.0207,98.03,36.60
1711780800268,0.0697,0.7233,0.0239,98.04,36.60
1711780800272,0.0820,0.7241,0.0290,98.04,36.60
1711780800276,0.0962,0.7249,0.0344,98.04,36.60
1711780800280,0.1121,0.7256,0.0384,98.04,36.60
1711780800284,0.1289,0.7263,0.0400,98.04,36.60
1711780800288,0.1460,0.7269,0.0386,98.04,36.60
1711780800292,0.1624,0.7275,0.0346,98.04,36.60
1711780800296,0.1771,0.7280,0.0292,98.04,36.60
1711780800300,0.1890,0.7284,0.0241,98.04,36.60
1711780800304,0.1973,0.7288,0.0207,98.04,36.60
1711780800308,0.2013,0.7291,0.0201,98.04,36.60
1711780800312,0.2007,0.7294,0.0225,98.04,36.60
1711780800316,0.1954,0.7296,0.0270,98.04,36.60
1711780800320,0.1859,0.7298,0.0325,98.04,36.60
1711780800324,0.1727,0.7299,0.0372,98.04,36.60
1711780800328,0.1568,0.7300,0.0398,98.04,36.60
1711780800332,0.1391,0.7300,0.0395,98.04,36.60
1711780800336,0.1208,0.7300,0.0363,98.04,36.60
1711780800340,0.1027,0.7299,0.0314,98.04,36.60
1711780800344,0.0857,0.7298,0.0264,98.05,36.60
1711780800348,0.0702,0.7296,0.0229,98.05,36.60
1711780800352,0.0567,0.7294,0.0227,98.05,36.60
1711780800356,0.0452,0.7291,0.0269,98.05,36.60
1711780800360,0.0358,0.7288,0.0357,98.05,36.60
1711780800364,0.0283,0.7284,0.0490,98.05,36.60
1711780800368,0.0223,0.7279,0.0655,98.05,36.60
1711780800372,0.0177,0.7274,0.0836,98.05,36.60
1711780800376,0.0142,0.7268,0.1012,98.05,36.60
1711780800380,0.0115,0.7261,0.1156,98.05,36.60
1711780800384,0.0094,0.7254,0.1246,98.05,36.60
1711780800388,0.0077,0.7246,0.1268,98.05,36.60
1711780800392,0.0063,0.7238,0.1220,98.05,36.60
1711780800396,0.0051,0.7228,0.1117,98.05,36.60
1711780800400,0.0040,0.7218,0.0984,98.05,36.60
1711780800404,0.0030,0.7207,0.0848,98.05,36.60
1711780800408,0.0020,0.7195,0.0730,98.05,36.60
1711780800412,0.0011,0.7182,0.0637,98.05,36.60
1711780800416,0.0002,0.7169,0.0566,98.05,36.60
1711780800420,-0.0007,0.7154,0.0505,98.06,36.60
1711780800424,-0.0017,0.7138,0.0444,98.06,36.60
1711780800428,-0.0026,0.7122,0.0377,98.06,36.60
1711780800432,-0.0035,0.7104,0.0310,98.06,36.60
1711780800436,-0.0044,0.7085,0.0250,98.06,36.60
1711780800440,-0.0053,0.7066,0.0211,98.06,36.60
1711780800444,-0.0061,0.7045,0.0201,98.06,36.60
1711780800448,-0.0070,0.7023,0.0222,98.06,36.60
1711780800452,-0.0079,0.7000,0.0266,98.06,36.60
1711780800456,-0.0088,0.6975,0.0320,98.06,36.60
1711780800460,-0.0096,0.6950,0.0368,98.06,36.60
1711780800464,-0.0105,0.6923,0.0397,98.06,36.60
1711780800468,-0.0113,0.6895,0.0396,98.06,36.60
1711780800472,-0.0122,0.6865,0.0367,98.06,36.60
1711780800476,-0.0130,0.6835,0.0318,98.06,36.60
1711780800480,-0.0138,0.6803,0.0263,98.06,36.60
1711780800484,-0.0146,0.6770,0.0220,98.06,36.60
1711780800488,-0.0154,0.6735,0.0200,98.06,36.60
1711780800492,-0.0161,0.6699,0.0211,98.06,36.60
1711780800496,-0.0169,0.6662,0.0247,98.07,36.60
1711780800500,-0.0176,0.6624,0.0300,98.07,36.60
1711780800504,-0.0184,0.6584,0.0353,98.07,36.60
1711780800508,-0.0191,0.6543,0.0389,98.07,36.60
1711780800512,-0.0198,0.6501,0.0400,98.07,36.60
1711780800516,-0.0204,0.6457,0.0380,98.07,36.60
1711780800520,-0.0211,0.6413,0.0337,98.07,36.60
1711780800524,-0.0217,0.6367,0.0282,98.07,36.60
1711780800528,-0.0223,0.6320,0.0233,98.07,36.60
1711780800532,-0.0229,0.6271,0.0204,98.07,36.60
1711780800536,-0.0235,0.6222,0.0203,98.07,36.60
1711780800540,-0.0240,0.6171,0.0232,98.07,36.60
1711780800544,-0.0246,0.6119,0.0280,98.07,36.60
1711780800548,-0.0251,0.6067,0.0334,98.07,36.60
1711780800552,-0.0256,0.6013,0.0379,98.07,36.60
1711780800556,-0.0260,0.5959,0.0399,98.07,36.60
1711780800560,-0.0265,0.5903,0.0390,98.07,36.60
1711780800564,-0.0269,0.5847,0.0355,98.07,36.60
1711780800568,-0.0273,0.5790,0.0303,98.07,36.60
1711780800572,-0.0276,0.5732,0.0250,98.07,36.60
1711780800576,-0.0280,0.5674,0.0212,98.08,36.60
1711780800580,-0.0283,0.5615,0.0200,98.08,36.60
1711780800584,-0.0286,0.5556,0.0218,98.08,36.60
1711780800588,-0.0288,0.5496,0.0261,98.08,36.60
1711780800592,-0.0291,0.5436,0.0315,98.08,36.60
1711780800596,-0.0293,0.5375,0.0365,98.08,36.60
1711780800600,-0.0295,0.5315,0.0395,98.08,36.60
1711780800604,-0.0296,0.5254,0.0397,98.08,36.60
1711780800608,-0.0298,0.5193,0.0370,98.08,36.60
1711780800612,-0.0299,0.5133,0.0322,98.08,36.60
1711780800616,-0.0299,0.5072,0.0268,98.08,36.60
1711780800620,-0.0300,0.5012,0.0223,98.08,36.60
1711780800624,-0.0300,0.4952,0.0201,98.08,36.60
1711780800628,-0.0300,0.4892,0.0208,98.08,36.60
1711780800632,-0.0300,0.4833,0.0243,98.08,36.60
1711780800636,-0.0299,0.4775,0.0295,98.08,36.60
1711780800640,-0.0298,0.4717,0.0348,98.08,36.60
1711780800644,-0.0297,0.4660,0.0387,98.08,36.60
1711780800648,-0.0296,0.4604,0.0400,98.08,36.60
1711780800652,-0.0294,0.4548,0.0383,98.09,36.60
1711780800656,-0.0292,0.4494,0.0341,98.09,36.60
1711780800660,-0.0290,0.4441,0.0287,98.09,36.60
1711780800664,-0.0287,0.4389,0.0237,98.09,36.60
1711780800668,-0.0284,0.4339,0.0206,98.09,36.60
1711780800672,-0.0281,0.4290,0.0202,98.09,36.60
1711780800676,-0.0278,0.4242,0.0228,98.09,36.60
1711780800680,-0.0275,0.4196,0.0275,98.09,36.60
1711780800684,-0.0271,0.4151,0.0330,98.09,36.60
1711780800688,-0.0267,0.4109,0.0375,98.09,36.60
1711780800692,-0.0263,0.4068,0.0399,98.09,36.60
1711780800696,-0.0258,0.4029,0.0393,98.09,36.60
1711780800700,-0.0253,0.3991,0.0359,98.09,36.60
1711780800704,-0.0248,0.3956,0.0308,98.09,36.60
1711780800708,-0.0243,0.3923,0.0254,98.09,36.60
1711780800712,-0.0238,0.3892,0.0214,98.09,36.60
1711780800716,-0.0232,0.3863,0.0200,98.09,36.60
1711780800720,-0.0226,0.3837,0.0216,98.09,36.60
1711780800724,-0.0220,0.3812,0.0256,98.09,36.60
1711780800728,-0.0214,0.3790,0.0310,98.09,36.60
1711780800732,-0.0208,0.3770,0.0361,98.10,36.60
1711780800736,-0.0201,0.3753,0.0393,98.10,36.60
1711780800740,-0.0194,0.3738,0.0398,98.10,36.60
1711780800744,-0.0187,0.3726,0.0374,98.10,36.60
1711780800748,-0.0180,0.3716,0.0327,98.10,36.60
1711780800752,-0.0173,0.3708,0.0273,98.10,36.60
1711780800756,-0.0165,0.3703,0.0226,98.10,36.60
1711780800760,-0.0158,0.3700,0.0202,98.10,36.60
1711780800764,-0.0150,0.3700,0.0207,98.10,36.60
1711780800768,-0.0142,0.3703,0.0239,98.10,36.60
1711780800772,-0.0134,0.3708,0.0290,98.10,36.60
1711780800776,-0.0126,0.3715,0.0344,98.10,36.60
1711780800780,-0.0117,0.3725,0.0384,98.10,36.60
1711780800784,-0.0109,0.3738,0.0400,98.10,36.60
1711780800788,-0.0101,0.3752,0.0386,98.10,36.60
1711780800792,-0.0092,0.3770,0.0346,98.10,36.60
1711780800796,-0.0083,0.3789,0.0292,98.10,36.60
1711780800800,-0.0075,0.3811,0.0241,98.10,36.60
1711780800804,-0.0066,0.3835,0.0207,98.10,36.60
1711780800808,-0.0057,0.3862,0.0201,98.10,36.60
1711780800812,-0.0048,0.3890,0.0225,98.11,36.60
1711780800816,-0.0039,0.3921,0.0270,98.11,36.60
1711780800820,-0.0030,0.3954,0.0325,98.11,36.60
1711780800824,-0.0021,0.3989,0.0372,98.11,36.60
1711780800828,-0.0012,0.4026,0.0398,98.11,36.60
1711780800832,-0.0003,0.4065,0.0394,98.11,36.60
1711780800836,0.0006,0.4105,0.0363,98.11,36.60
1711780800840,0.0015,0.4148,0.0313,98.11,36.60
1711780800844,0.0024,0.4192,0.0259,98.11,36.60
1711780800848,0.0033,0.4238,0.0217,98.11,36.60
1711780800852,0.0042,0.4285,0.0200,98.11,36.60
1711780800856,0.0051,0.4334,0.0213,98.11,36.60
1711780800860,0.0060,0.4384,0.0252,98.11,36.60
1711780800864,0.0069,0.4435,0.0305,98.11,36.60
1711780800868,0.0078,0.4488,0.0357,98.11,36.60
1711780800872,0.0086,0.4542,0.0392,98.11,36.60
1711780800876,0.0095,0.4596,0.0399,98.11,36.60
1711780800880,0.0103,0.4652,0.0377,98.11,36.60
1711780800884,0.0112,0.4708,0.0332,98.11,36.60
1711780800888,0.0120,0.4766,0.0278,98.11,36.60
1711780800892,0.0128,0.4824,0.0230,98.12,36.60
1711780800896,0.0137,0.4882,0.0203,98.12,36.60
1711780800900,0.0145,0.4941,0.0205,98.12,36.60
1711780800904,0.0152,0.5001,0.0235,98.12,36.60
1711780800908,0.0160,0.5060,0.0285,98.12,36.60
1711780800912,0.0168,0.5120,0.0339,98.12,36.60
1711780800916,0.0175,0.5180,0.0382,98.12,36.60
1711780800920,0.0182,0.5240,0.0400,98.12,36.60
1711780800924,0.0189,0.5300,0.0388,98.12,36.60
1711780800928,0.0196,0.5360,0.0350,98.12,36.60
1711780800932,0.0203,0.5420,0.0297,98.12,36.60
1711780800936,0.0210,0.5480,0.0245,98.12,36.60
1711780800940,0.0216,0.5539,0.0210,98.12,36.60
1711780800944,0.0222,0.5597,0.0201,98.12,36.60
1711780800948,0.0228,0.5656,0.0221,98.12,36.60
1711780800952,0.0234,0.5713,0.0266,98.12,36.60
1711780800956,0.0240,0.5770,0.0320,98.12,36.60
1711780800960,0.0245,0.5827,0.0368,98.12,36.60
1711780800964,0.0250,0.5882,0.0397,98.12,36.60
1711780800968,0.0255,0.5937,0.0396,98.12,36.60
1711780800972,0.0260,0.5991,0.0367,98.13,36.60
1711780800976,0.0264,0.6044,0.0318,98.13,36.60
1711780800980,0.0268,0.6096,0.0263,98.13,36.60
1711780800984,0.0272,0.6147,0.0220,98.13,36.60
1711780800988,0.0276,0.6197,0.0200,98.13,36.60
1711780800992,0.0279,0.6246,0.0211,98.13,36.60
1711780800996,0.0282,0.6294,0.0247,98.13,36.61
1711780801000,0.0285,0.6341,0.0300,98.13,36.61
1711780801004,0.0288,0.6386,0.0353,98.13,36.61
1711780801008,0.0290,0.6431,0.0389,98.13,36.61
1711780801012,0.0293,0.6474,0.0400,98.13,36.61
1711780801016,0.0294,0.6516,0.0380,98.13,36.61
1711780801020,0.0296,0.6557,0.0337,98.13,36.61
1711780801024,0.0297,0.6596,0.0282,98.13,36.61
1711780801028,0.0298,0.6634,0.0233,98.13,36.61
1711780801032,0.0299,0.6671,0.0204,98.13,36.61
1711780801036,0.0300,0.6707,0.0203,98.13,36.61
1711780801040,0.0300,0.6741,0.0232,98.13,36.61
1711780801044,0.0298,0.6774,0.0280,98.13,36.61
1711780801048,0.0295,0.6806,0.0334,98.13,36.61
1711780801052,0.0287,0.6837,0.0379,98.14,36.61
1711780801056,0.0270,0.6866,0.0399,98.14,36.61
1711780801060,0.0235,0.6894,0.0391,98.14,36.61
1711780801064,0.0172,0.6921,0.0355,98.14,36.61
1711780801068,0.0070,0.6947,0.0304,98.14,36.61
1711780801072,-0.0076,0.6972,0.0254,98.14,36.61
1711780801076,-0.0256,0.6995,0.0225,98.14,36.61
1711780801080,-0.0447,0.7018,0.0236,98.14,36.61
1711780801084,-0.0609,0.7039,0.0304,98.14,36.61
1711780801088,-0.0697,0.7059,0.0442,98.14,36.61
1711780801092,-0.0664,0.7078,0.0653,98.14,36.61
1711780801096,-0.0427,0.7097,0.0923,98.14,36.61
1711780801100,0.0190,0.7114,0.1207,98.14,36.61
1711780801104,0.1496,0.7130,0.1440,98.14,36.61
1711780801108,0.3758,0.7145,0.1552,98.14,36.61
1711780801112,0.6767,0.7160,0.1504,98.14,36.61
1711780801116,0.9526,0.7173,0.1310,98.14,36.61
1711780801120,1.0687,0.7186,0.1035,98.14,36.61
1711780801124,0.9612,0.7198,0.0759,98.14,36.61
1711780801128,0.6959,0.7209,0.0547,98.14,36.61
1711780801132,0.4091,0.7219,0.0424,98.14,36.61
1711780801136,0.2000,0.7229,0.0381,98.15,36.61
1711780801140,0.0874,0.7238,0.0384,98.15,36.61
1711780801144,0.0407,0.7246,0.0400,98.15,36.61
1711780801148,0.0254,0.7254,0.0404,98.15,36.61
1711780801152,0.0211,0.7261,0.0384,98.15,36.61
1711780801156,0.0197,0.7267,0.0342,98.15,36.61
1711780801160,0.0188,0.7273,0.0288,98.15,36.61
1711780801164,0.0181,0.7278,0.0237,98.15,36.61
1711780801168,0.0174,0.7282,0.0206,98.15,36.61
1711780801172,0.0166,0.7286,0.0202,98.15,36.61
1711780801176,0.0159,0.7290,0.0228,98.15,36.61
1711780801180,0.0151,0.7293,0.0275,98.15,36.61
1711780801184,0.0143,0.7295,0.0330,98.15,36.61
1711780801188,0.0135,0.7297,0.0375,98.15,36.61
1711780801192,0.0127,0.7299,0.0399,98.15,36.61
1711780801196,0.0119,0.7300,0.0393,98.15,36.61
1711780801200,0.0111,0.7300,0.0359,98.15,36.61
1711780801204,0.0102,0.7300,0.0308,98.15,36.61
1711780801208,0.0094,0.7300,0.0254,98.15,36.61
1711780801212,0.0085,0.7299,0.0214,98.15,36.61
1711780801216,0.0077,0.7297,0.0200,98.15,36.61
1711780801220,0.0070,0.7295,0.0216,98.16,36.61
1711780801224,0.0063,0.7292,0.0256,98.16,36.61
1711780801228,0.0057,0.7289,0.0310,98.16,36.61
1711780801232,0.0053,0.7285,0.0361,98.16,36.61
1711780801236,0.0052,0.7281,0.0393,98.16,36.61
1711780801240,0.0056,0.7276,0.0398,98.16,36.61
1711780801244,0.0065,0.7270,0.0374,98.16,36.61
1711780801248,0.0083,0.7264,0.0327,98.16,36.61
1711780801252,0.0111,0.7257,0.0273,98.16,36.61
1711780801256,0.0153,0.7250,0.0226,98.16,36.61
1711780801260,0.0211,0.7241,0.0202,98.16,36.61
1711780801264,0.0288,0.7232,0.0207,98.16,36.61
1711780801268,0.0386,0.7222,0.0239,98.16,36.61
1711780801272,0.0504,0.7211,0.0290,98.16,36.61
1711780801276,0.0642,0.7200,0.0344,98.16,36.61
1711780801280,0.0796,0.7187,0.0384,98.16,36.61
1711780801284,0.0961,0.7174,0.0400,98.16,36.61
1711780801288,0.1128,0.7160,0.0386,98.16,36.61
1711780801292,0.1288,0.7145,0.0346,98.16,36.61
1711780801296,0.1432,0.7128,0.0292,98.16,36.61
1711780801300,0.1548,0.7111,0.0241,98.16,36.61
1711780801304,0.1629,0.7093,0.0207,98.17,36.61
1711780801308,0.1667,0.7074,0.0201,98.17,36.61
1711780801312,0.1659,0.7053,0.0225,98.17,36.61
1711780801316,0.1605,0.7031,0.0270,98.17,36.61
1711780801320,0.1508,0.7009,0.0325,98.17,36.61
1711780801324,0.1375,0.6985,0.0372,98.17,36.61
1711780801328,0.1215,0.6960,0.0398,98.17,36.61
1711780801332,0.1039,0.6933,0.0395,98.17,36.61
1711780801336,0.0855,0.6906,0.0363,98.17,36.61
1711780801340,0.0675,0.6877,0.0314,98.17,36.61
1711780801344,0.0505,0.6847,0.0264,98.17,36.61
1711780801348,0.0352,0.6815,0.0229,98.17,36.61
1711780801352,0.0218,0.6783,0.0227,98.17,36.61
1711780801356,0.0105,0.6749,0.0269,98.17,36.61
1711780801360,0.0013,0.6714,0.0357,98.17,36.61
1711780801364,-0.0061,0.6677,0.0490,98.17,36.61
1711780801368,-0.0118,0.6639,0.0655,98.17,36.61
1711780801372,-0.0161,0.6600,0.0836,98.17,36.61
1711780801376,-0.0193,0.6559,0.1012,98.17,36.61
1711780801380,-0.0216,0.6518,0.1156,98.17,36.61
1711780801384,-0.0234,0.6475,0.1246,98.17,36.61
1711780801388,-0.0246,0.6430,0.1268,98.17,36.61
1711780801392,-0.0256,0.6385,0.1220,98.18,36.61
1711780801396,-0.0263,0.6338,0.1117,98.18,36.61
1711780801400,-0.0269,0.6290,0.0984,98.18,36.61
1711780801404,-0.0274,0.6241,0.0848,98.18,36.61
1711780801408,-0.0278,0.6191,0.0730,98.18,36.61
1711780801412,-0.0282,0.6140,0.0637,98.18,36.61
1711780801416,-0.0285,0.6088,0.0566,98.18,36.61
1711780801420,-0.0287,0.6034,0.0505,98.18,36.61
1711780801424,-0.0290,0.5980,0.0444,98.18,36.61
1711780801428,-0.0292,0.5925,0.0377,98.18,36.61
1711780801432,-0.0294,0.5869,0.0310,98.18,36.61
1711780801436,-0.0296,0.5812,0.0250,98.18,36.61
1711780801440,-0.0297,0.5755,0.0211,98.18,36.61
1711780801444,-0.0298,0.5697,0.0201,98.18,36.61
1711780801448,-0.0299,0.5638,0.0222,98.18,36.61
1711780801452,-0.0300,0.5579,0.0266,98.18,36.61
1711780801456,-0.0300,0.5519,0.0320,98.18,36.61
1711780801460,-0.0300,0.5459,0.0368,98.18,36.61
1711780801464,-0.0300,0.5399,0.0397,98.18,36.61
1711780801468,-0.0299,0.5338,0.0396,98.18,36.61
1711780801472,-0.0298,0.5278,0.0367,98.18,36.61
1711780801476,-0.0297,0.5217,0.0318,98.18,36.61
1711780801480,-0.0296,0.5156,0.0263,98.19,36.61
1711780801484,-0.0294,0.5096,0.0220,98.19,36.61
1711780801488,-0.0293,0.5035,0.0200,98.19,36.61
1711780801492,-0.0290,0.4975,0.0211,98.19,36.61
1711780801496,-0.0288,0.4915,0.0247,98.19,36.61
1711780801500,-0.0285,0.4856,0.0300,98.19,36.61
1711780801504,-0.0282,0.4797,0.0353,98.19,36.61
1711780801508,-0.0279,0.4739,0.0389,98.19,36.61
1711780801512,-0.0276,0.4682,0.0400,98.19,36.61
1711780801516,-0.0272,0.4625,0.0380,98.19,36.61
1711780801520,-0.0268,0.4570,0.0337,98.19,36.61
1711780801524,-0.0264,0.4515,0.0282,98.19,36.61
1711780801528,-0.0260,0.4462,0.0233,98.19,36.61
1711780801532,-0.0255,0.4409,0.0204,98.19,36.61
1711780801536,-0.0250,0.4358,0.0203,98.19,36.61
1711780801540,-0.0245,0.4309,0.0232,98.19,36.61
1711780801544,-0.0240,0.4260,0.0280,98.19,36.61
1711780801548,-0.0234,0.4214,0.0334,98.19,36.61
1711780801552,-0.0228,0.4169,0.0379,98.19,36.61
1711780801556,-0.0222,0.4125,0.0399,98.19,36.61
1711780801560,-0.0216,0.4084,0.0390,98.19,36.61
1711780801564,-0.0210,0.4044,0.0355,98.19,36.61
1711780801568,-0.0203,0.4006,0.0303,98.20,36.61
1711780801572,-0.0196,0.3970,0.0250,98.20,36.61
1711780801576,-0.0189,0.3936,0.0212,98.20,36.61
1711780801580,-0.0182,0.3904,0.0200,98.20,36.61
1711780801584,-0.0175,0.3874,0.0218,98.20,36.61
1711780801588,-0.0168,0.3847,0.0261,98.20,36.61
1711780801592,-0.0160,0.3821,0.0315,98.20,36.61
1711780801596,-0.0152,0.3798,0.0365,98.20,36.61
1711780801600,-0.0145,0.3778,0.0395,98.20,36.61
1711780801604,-0.0137,0.3760,0.0397,98.20,36.61
1711780801608,-0.0128,0.3744,0.0370,98.20,36.61
1711780801612,-0.0120,0.3730,0.0322,98.20,36.61
1711780801616,-0.0112,0.3719,0.0268,98.20,36.61
1711780801620,-0.0103,0.3711,0.0223,98.20,36.61
1711780801624,-0.0095,0.3705,0.0201,98.20,36.61
1711780801628,-0.0086,0.3701,0.0208,98.20,36.61
1711780801632,-0.0078,0.3700,0.0243,98.20,36.61
1711780801636,-0.0069,0.3702,0.0295,98.20,36.61
1711780801640,-0.0060,0.3706,0.0348,98.20,36.61
1711780801644,-0.0051,0.3712,0.0387,98.20,36.61
1711780801648,-0.0042,0.3721,0.0400,98.20,36.61
1711780801652,-0.0033,0.3732,0.0383,98.20,36.61
1711780801656,-0.0024,0.3746,0.0341,98.20,36.61
1711780801660,-0.0015,0.3763,0.0287,98.21,36.61
1711780801664,-0.0006,0.3781,0.0237,98.21,36.61
1711780801668,0.0003,0.3802,0.0206,98.21,36.61
1711780801672,0.0012,0.3825,0.0202,98.21,36.61
1711780801676,0.0021,0.3851,0.0228,98.21,36.61
1711780801680,0.0030,0.3879,0.0275,98.21,36.61
1711780801684,0.0039,0.3909,0.0330,98.21,36.61
1711780801688,0.0048,0.3941,0.0375,98.21,36.61
1711780801692,0.0057,0.3975,0.0399,98.21,36.61
1711780801696,0.0066,0.4011,0.0393,98.21,36.61
1711780801700,0.0075,0.4049,0.0359,98.21,36.61
1711780801704,0.0083,0.4089,0.0308,98.21,36.61
1711780801708,0.0092,0.4131,0.0254,98.21,36.61
1711780801712,0.0101,0.4175,0.0214,98.21,36.61
1711780801716,0.0109,0.4220,0.0200,98.21,36.61
1711780801720,0.0117,0.4266,0.0216,98.21,36.61
1711780801724,0.0126,0.4315,0.0256,98.21,36.61
1711780801728,0.0134,0.4364,0.0310,98.21,36.61
1711780801732,0.0142,0.4415,0.0361,98.21,36.61
1711780801736,0.0150,0.4467,0.0393,98.21,36.61
1711780801740,0.0158,0.4520,0.0398,98.21,36.61
1711780801744,0.0165,0.4575,0.0374,98.21,36.61
1711780801748,0.0173,0.4630,0.0327,98.21,36.61
1711780801752,0.0180,0.4686,0.0273,98.21,36.61
1711780801756,0.0187,0.4743,0.0226,98.22,36.61
1711780801760,0.0194,0.4801,0.0202,98.22,36.61
1711780801764,0.0201,0.4859,0.0207,98.22,36.61
1711780801768,0.0208,0.4918,0.0239,98.22,36.61
1711780801772,0.0214,0.4977,0.0290,98.22,36.61
1711780801776,0.0220,0.5037,0.0344,98.22,36.61
1711780801780,0.0226,0.5097,0.0384,98.22,36.61
1711780801784,0.0232,0.5157,0.0400,98.22,36.61
1711780801788,0.0238,0.5217,0.0386,98.22,36.61
1711780801792,0.0243,0.5277,0.0346,98.22,36.61
1711780801796,0.0248,0.5337,0.0292,98.22,36.61
1711780801800,0.0253,0.5397,0.0241,98.22,36.61
1711780801804,0.0258,0.5456,0.0207,98.22,36.61
1711780801808,0.0263,0.5516,0.0201,98.22,36.61
1711780801812,0.0267,0.5575,0.0225,98.22,36.61
1711780801816,0.0271,0.5633,0.0270,98.22,36.61
1711780801820,0.0275,0.5691,0.0325,98.22,36.61
1711780801824,0.0278,0.5748,0.0372,98.22,36.61
1711780801828,0.0281,0.5805,0.0398,98.22,36.61
1711780801832,0.0284,0.5861,0.0394,98.22,36.61
1711780801836,0.0287,0.5916,0.0363,98.22,36.61
1711780801840,0.0290,0.5970,0.0313,98.22,36.61
1711780801844,0.0292,0.6024,0.0259,98.22,36.61
1711780801848,0.0294,0.6076,0.0217,98.22,36.61
1711780801852,0.0296,0.6127,0.0200,98.22,36.61
1711780801856,0.0297,0.6178,0.0213,98.23,36.61
1711780801860,0.0298,0.6227,0.0252,98.23,36.61
1711780801864,0.0299,0.6276,0.0305,98.23,36.61
1711780801868,0.0300,0.6323,0.0357,98.23,36.61
1711780801872,0.0300,0.6369,0.0392,98.23,36.61
1711780801876,0.0300,0.6414,0.0399,98.23,36.61
1711780801880,0.0300,0.6457,0.0377,98.23,36.61
1711780801884,0.0299,0.6500,0.0332,98.23,36.61
1711780801888,0.0299,0.6541,0.0278,98.23,36.61
1711780801892,0.0298,0.6581,0.0230,98.23,36.61
1711780801896,0.0296,0.6619,0.0203,98.23,36.61
1711780801900,0.0295,0.6657,0.0205,98.23,36.61
1711780801904,0.0293,0.6693,0.0235,98.23,36.61
1711780801908,0.0291,0.6728,0.0285,98.23,36.61
1711780801912,0.0288,0.6761,0.0339,98.23,36.61
1711780801916,0.0286,0.6794,0.0382,98.23,36.61
1711780801920,0.0283,0.6825,0.0400,98.23,36.61
1711780801924,0.0280,0.6855,0.0388,98.23,36.61
1711780801928,0.0276,0.6883,0.0350,98.23,36.61
1711780801932,0.0273,0.6911,0.0297,98.23,36.61
1711780801936,0.0269,0.6937,0.0245,98.23,36.61
1711780801940,0.0265,0.6962,0.0210,98.23,36.61
1711780801944,0.0260,0.6986,0.0201,98.23,36.61
1711780801948,0.0256,0.7009,0.0221,98.23,36.61
1711780801952,0.0251,0.7031,0.0266,98.23,36.61
1711780801956,0.0246,0.7051,0.0320,98.24,36.61
1711780801960,0.0240,0.7071,0.0368,98.24,36.61
1711780801964,0.0235,0.7090,0.0397,98.24,36.61
1711780801968,0.0229,0.7107,0.0396,98.24,36.61
1711780801972,0.0223,0.7124,0.0367,98.24,36.61
1711780801976,0.0217,0.7139,0.0318,98.24,36.61
1711780801980,0.0211,0.7154,0.0263,98.24,36.61
1711780801984,0.0204,0.7168,0.0220,98.24,36.61
1711780801988,0.0198,0.7181,0.0200,98.24,36.61
1711780801992,0.0191,0.7193,0.0211,98.24,36.61
1711780801996,0.0184,0.7205,0.0247,98.24,36.61
1711780802000,0.0176,0.7215,0.0300,98.24,36.61
1711780802004,0.0169,0.7225,0.0353,98.24,36.61
1711780802008,0.0161,0.7234,0.0389,98.24,36.61
1711780802012,0.0154,0.7243,0.0400,98.24,36.61
1711780802016,0.0146,0.7251,0.0380,98.24,36.61
1711780802020,0.0138,0.7258,0.0337,98.24,36.61
1711780802024,0.0130,0.7265,0.0282,98.24,36.61
1711780802028,0.0122,0.7270,0.0233,98.24,36.61
1711780802032,0.0113,0.7276,0.0204,98.24,36.61
1711780802036,0.0105,0.7281,0.0203,98.24,36.61
1711780802040,0.0096,0.7285,0.0232,98.24,36.61
1711780802044,0.0086,0.7289,0.0280,98.24,36.61
1711780802048,0.0075,0.7292,0.0334,98.24,36.61
1711780802052,0.0059,0.7295,0.0379,98.24,36.61
1711780802056,0.0033,0.7297,0.0399,98.24,36.61
1711780802060,-0.0010,0.7298,0.0391,98.25,36.61
1711780802064,-0.0081,0.7300,0.0355,98.25,36.61
1711780802068,-0.0190,0.7300,0.0304,98.25,36.61
1711780802072,-0.0342,0.7300,0.0254,98.25,36.61
1711780802076,-0.0530,0.7300,0.0225,98.25,36.61
1711780802080,-0.0727,0.7299,0.0236,98.25,36.61
1711780802084,-0.0895,0.7298,0.0304,98.25,36.61
1711780802088,-0.0990,0.7296,0.0442,98.25,36.61
1711780802092,-0.0962,0.7293,0.0653,98.25,36.61
1711780802096,-0.0731,0.7290,0.0923,98.25,36.61
1711780802100,-0.0119,0.7287,0.1207,98.25,36.61
1711780802104,0.1182,0.7283,0.1440,98.25,36.61
1711780802108,0.3439,0.7278,0.1552,98.25,36.61
1711780802112,0.6444,0.7273,0.1504,98.25,36.61
1711780802116,0.9199,0.7267,0.1310,98.25,36.61
1711780802120,1.0356,0.7260,0.1035,98.25,36.61
1711780802124,0.9277,0.7253,0.0759,98.25,36.61
1711780802128,0.6622,0.7245,0.0547,98.25,36.61
1711780802132,0.3751,0.7236,0.0424,98.25,36.61
1711780802136,0.1657,0.7226,0.0381,98.25,36.61
1711780802140,0.0528,0.7216,0.0384,98.25,36.61
1711780802144,0.0060,0.7204,0.0400,98.25,36.61
1711780802148,-0.0095,0.7192,0.0404,98.25,36.61
1711780802152,-0.0140,0.7179,0.0384,98.25,36.61
1711780802156,-0.0155,0.7166,0.0342,98.25,36.61
1711780802160,-0.0164,0.7151,0.0288,98.25,36.61
1711780802164,-0.0171,0.7135,0.0237,98.25,36.61
1711780802168,-0.0179,0.7118,0.0206,98.26,36.61
1711780802172,-0.0186,0.7100,0.0202,98.26,36.61
1711780802176,-0.0193,0.7081,0.0228,98.26,36.61
1711780802180,-0.0200,0.7061,0.0275,98.26,36.61
1711780802184,-0.0206,0.7040,0.0330,98.26,36.61
1711780802188,-0.0213,0.7018,0.0375,98.26,36.61
1711780802192,-0.0219,0.6994,0.0399,98.26,36.61
1711780802196,-0.0225,0.6970,0.0393,98.26,36.61
1711780802200,-0.0231,0.6944,0.0359,98.26,36.61
1711780802204,-0.0237,0.6917,0.0308,98.26,36.61
1711780802208,-0.0242,0.6888,0.0254,98.26,36.61
1711780802212,-0.0247,0.6859,0.0214,98.26,36.61
1711780802216,-0.0251,0.6828,0.0200,98.26,36.61
1711780802220,-0.0255,0.6796,0.0216,98.26,36.61
1711780802224,-0.0257,0.6762,0.0256,98.26,36.61
1711780802228,-0.0259,0.6727,0.0310,98.26,36.61
1711780802232,-0.0258,0.6691,0.0361,98.26,36.61
1711780802236,-0.0253,0.6654,0.0393,98.26,36.61
1711780802240,-0.0245,0.6615,0.0398,98.26,36.61
1711780802244,-0.0229,0.6575,0.0374,98.26,36.61
1711780802248,-0.0206,0.6534,0.0327,98.26,36.61
1711780802252,-0.0171,0.6492,0.0273,98.26,36.61
1711780802256,-0.0123,0.6448,0.0226,98.26,36.61
1711780802260,-0.0058,0.6403,0.0202,98.26,36.61
1711780802264,0.0026,0.6357,0.0207,98.26,36.61
1711780802268,0.0131,0.6309,0.0239,98.26,36.61
1711780802272,0.0257,0.6261,0.0290,98.26,36.61
1711780802276,0.0403,0.6211,0.0344,98.26,36.61
1711780802280,0.0565,0.6160,0.0384,98.27,36.61
1711780802284,0.0737,0.6108,0.0400,98.27,36.61
1711780802288,0.0913,0.6055,0.0386,98.27,36.61
1711780802292,0.1082,0.6001,0.0346,98.27,36.61
1711780802296,0.1234,0.5947,0.0292,98.27,36.61
1711780802300,0.1359,0.5891,0.0241,98.27,36.61
1711780802304,0.1449,0.5835,0.0207,98.27,36.61
1711780802308,0.1496,0.5778,0.0201,98.27,36.61
1711780802312,0.1498,0.5720,0.0225,98.27,36.61
1711780802316,0.1453,0.5661,0.0270,98.27,36.61
1711780802320,0.1366,0.5602,0.0325,98.27,36.61
1711780802324,0.1243,0.5543,0.0372,98.27,36.61
1711780802328,0.1093,0.5483,0.0398,98.27,36.61
1711780802332,0.0926,0.5423,0.0395,98.27,36.61
1711780802336,0.0753,0.5362,0.0363,98.27,36.61
1711780802340,0.0583,0.5302,0.0314,98.27,36.61
1711780802344,0.0424,0.5241,0.0264,98.27,36.61
1711780802348,0.0280,0.5180,0.0229,98.27,36.61
1711780802352,0.0157,0.5119,0.0227,98.27,36.61
1711780802356,0.0055,0.5059,0.0269,98.27,36.61
1711780802360,-0.0027,0.4999,0.0357,98.27,36.61
1711780802364,-0.0090,0.4939,0.0490,98.27,36.61
1711780802368,-0.0136,0.4879,0.0655,98.27,36.61
1711780802372,-0.0169,0.4820,0.0836,98.27,36.61
1711780802376,-0.0190,0.4762,0.1012,98.27,36.61
1711780802380,-0.0203,0.4704,0.1156,98.27,36.61
1711780802384,-0.0210,0.4647,0.1246,98.27,36.61
1711780802388,-0.0212,0.4591,0.1268,98.27,36.61
1711780802392,-0.0211,0.4536,0.1220,98.27,36.61
1711780802396,-0.0208,0.4483,0.1117,98.27,36.61
1711780802400,-0.0203,0.4430,0.0984,98.28,36.61
1711780802404,-0.0197,0.4378,0.0848,98.28,36.61
1711780802408,-0.0191,0.4328,0.0730,98.28,36.61
1711780802412,-0.0184,0.4279,0.0637,98.28,36.61
1711780802416,-0.0177,0.4232,0.0566,98.28,36.61
1711780802420,-0.0170,0.4186,0.0505,98.28,36.61
1711780802424,-0.0163,0.4142,0.0444,98.28,36.61
1711780802428,-0.0155,0.4100,0.0377,98.28,36.61
1711780802432,-0.0147,0.4059,0.0310,98.28,36.61
1711780802436,-0.0139,0.4020,0.0250,98.28,36.61
1711780802440,-0.0131,0.3984,0.0211,98.28,36.61
1711780802444,-0.0123,0.3949,0.0201,98.28,36.61
1711780802448,-0.0115,0.3916,0.0222,98.28,36.61
1711780802452,-0.0106,0.3886,0.0266,98.28,36.61
1711780802456,-0.0098,0.3857,0.0320,98.28,36.61
1711780802460,-0.0089,0.3831,0.0368,98.28,36.61
1711780802464,-0.0080,0.3807,0.0397,98.28,36.61
1711780802468,-0.0072,0.3786,0.0396,98.28,36.61
1711780802472,-0.0063,0.3766,0.0367,98.28,36.61
1711780802476,-0.0054,0.3750,0.0318,98.28,36.61
1711780802480,-0.0045,0.3735,0.0263,98.28,36.61
1711780802484,-0.0036,0.3723,0.0220,98.28,36.61
1711780802488,-0.0027,0.3714,0.0200,98.28,36.61
1711780802492,-0.0018,0.3707,0.0211,98.28,36.61
1711780802496,-0.0009,0.3702,0.0247,98.28,36.61
1711780802500,0.0000,0.3700,0.0300,98.28,36.61
1711780802504,0.0009,0.3701,0.0353,98.28,36.61
1711780802508,0.0018,0.3704,0.0389,98.28,36.61
1711780802512,0.0027,0.3709,0.0400,98.28,36.61
1711780802516,0.0036,0.3717,0.0380,98.28,36.61
1711780802520,0.0045,0.3728,0.0337,98.28,36.61
1711780802524,0.0054,0.3741,0.0282,98.29,36.61
1711780802528,0.0063,0.3756,0.0233,98.29,36.61
1711780802532,0.0072,0.3774,0.0204,98.29,36.61
1711780802536,0.0080,0.3794,0.0203,98.29,36.61
1711780802540,0.0089,0.3816,0.0232,98.29,36.61
1711780802544,0.0098,0.3841,0.0280,98.29,36.61
1711780802548,0.0106,0.3868,0.0334,98.29,36.61
1711780802552,0.0115,0.3897,0.0379,98.29,36.61
1711780802556,0.0123,0.3928,0.0399,98.29,36.61
1711780802560,0.0131,0.3962,0.0390,98.29,36.61
1711780802564,0.0139,0.3997,0.0355,98.29,36.61
1711780802568,0.0147,0.4034,0.0303,98.29,36.61
1711780802572,0.0155,0.4074,0.0250,98.29,36.61
1711780802576,0.0163,0.4115,0.0212,98.29,36.61
1711780802580,0.0170,0.4157,0.0200,98.29,36.61
1711780802584,0.0178,0.4202,0.0218,98.29,36.61
1711780802588,0.0185,0.4248,0.0261,98.29,36.61
1711780802592,0.0192,0.4296,0.0315,98.29,36.61
1711780802596,0.0199,0.4345,0.0365,98.29,36.61
1711780802600,0.0205,0.4395,0.0395,98.29,36.61
1711780802604,0.0212,0.4447,0.0397,98.29,36.61
1711780802608,0.0218,0.4499,0.0370,98.29,36.61
1711780802612,0.0224,0.4553,0.0322,98.29,36.61
1711780802616,0.0230,0.4608,0.0268,98.29,36.61
1711780802620,0.0236,0.4664,0.0223,98.29,36.61
1711780802624,0.0241,0.4721,0.0201,98.29,36.61
1711780802628,0.0247,0.4778,0.0208,98.29,36.61
1711780802632,0.0252,0.4836,0.0243,98.29,36.61
1711780802636,0.0256,0.4895,0.0295,98.29,36.61
1711780802640,0.0261,0.4954,0.0348,98.29,36.61
1711780802644,0.0265,0.5014,0.0387,98.29,36.61
1711780802648,0.0269,0.5073,0.0400,98.29,36.61
1711780802652,0.0273,0.5133,0.0383,98.29,36.61
1711780802656,0.0277,0.5193,0.0341,98.29,36.61
1711780802660,0.0280,0.5253,0.0287,98.30,36.61
1711780802664,0.0283,0.5313,0.0237,98.30,36.61
1711780802668,0.0286,0.5373,0.0206,98.30,36.61
1711780802672,0.0289,0.5433,0.0202,98.30,36.61
1711780802676,0.0291,0.5492,0.0228,98.30,36.61
1711780802680,0.0293,0.5552,0.0275,98.30,36.61
1711780802684,0.0295,0.5610,0.0330,98.30,36.61
1711780802688,0.0296,0.5668,0.0375,98.30,36.61
1711780802692,0.0298,0.5726,0.0399,98.30,36.61
1711780802696,0.0299,0.5783,0.0393,98.30,36.61
1711780802700,0.0299,0.5839,0.0359,98.30,36.61
1711780802704,0.0300,0.5894,0.0308,98.30,36.61
1711780802708,0.0300,0.5949,0.0254,98.30,36.61
1711780802712,0.0300,0.6003,0.0214,98.30,36.61
1711780802716,0.0299,0.6056,0.0200,98.30,36.61
1711780802720,0.0299,0.6107,0.0216,98.30,36.61
1711780802724,0.0298,0.6158,0.0256,98.30,36.61
1711780802728,0.0297,0.6208,0.0310,98.30,36.61
1711780802732,0.0295,0.6257,0.0361,98.30,36.61
1711780802736,0.0293,0.6304,0.0393,98.30,36.61
1711780802740,0.0291,0.6351,0.0398,98.30,36.61
1711780802744,0.0289,0.6396,0.0374,98.30,36.61
1711780802748,0.0287,0.6440,0.0327,98.30,36.61
1711780802752,0.0284,0.6483,0.0273,98.30,36.61
1711780802756,0.0281,0.6525,0.0226,98.30,36.61
1711780802760,0.0278,0.6565,0.0202,98.30,36.61
1711780802764,0.0274,0.6604,0.0207,98.30,36.61
1711780802768,0.0270,0.6642,0.0239,98.30,36.61
1711780802772,0.0266,0.6679,0.0290,98.30,36.61
1711780802776,0.0262,0.6714,0.0344,98.30,36.61
1711780802780,0.0257,0.6748,0.0384,98.30,36.61
1711780802784,0.0252,0.6781,0.0400,98.30,36.61
1711780802788,0.0247,0.6813,0.0386,98.30,36.61
1711780802792,0.0242,0.6843,0.0346,98.30,36.61
1711780802796,0.0237,0.6872,0.0292,98.30,36.61
1711780802800,0.0231,0.6900,0.0241,98.30,36.61
1711780802804,0.0225,0.6927,0.0207,98.30,36.61
1711780802808,0.0219,0.6953,0.0201,98.31,36.61
1711780802812,0.0213,0.6977,0.0225,98.31,36.61
1711780802816,0.0206,0.7000,0.0270,98.31,36.61
1711780802820,0.0200,0.7022,0.0325,98.31,36.61
1711780802824,0.0193,0.7044,0.0372,98.31,36.61
1711780802828,0.0186,0.7064,0.0398,98.31,36.61
1711780802832,0.0179,0.7082,0.0394,98.31,36.61
1711780802836,0.0171,0.7100,0.0363,98.31,36.61
1711780802840,0.0164,0.7117,0.0313,98.31,36.61
1711780802844,0.0156,0.7133,0.0259,98.31,36.61
1711780802848,0.0148,0.7149,0.0217,98.31,36.61
1711780802852,0.0141,0.7163,0.0200,98.31,36.61
1711780802856,0.0132,0.7176,0.0213,98.31,36.61
1711780802860,0.0124,0.7189,0.0252,98.31,36.61
1711780802864,0.0116,0.7200,0.0305,98.31,36.61
1711780802868,0.0108,0.7211,0.0357,98.31,36.61
1711780802872,0.0099,0.7221,0.0392,98.31,36.61
1711780802876,0.0091,0.7231,0.0399,98.31,36.61
1711780802880,0.0082,0.7240,0.0377,98.31,36.61
1711780802884,0.0073,0.7248,0.0332,98.31,36.61
1711780802888,0.0064,0.7255,0.0278,98.31,36.61
1711780802892,0.0055,0.7262,0.0230,98.31,36.61
1711780802896,0.0047,0.7268,0.0203,98.31,36.61
1711780802900,0.0038,0.7274,0.0205,98.31,36.61
1711780802904,0.0029,0.7279,0.0235,98.31,36.61
1711780802908,0.0020,0.7283,0.0285,98.31,36.61
1711780802912,0.0011,0.7287,0.0339,98.31,36.61
1711780802916,0.0002,0.7291,0.0382,98.31,36.61
1711780802920,-0.0008,0.7294,0.0400,98.31,36.61
1711780802924,-0.0017,0.7296,0.0388,98.31,36.61
1711780802928,-0.0026,0.7298,0.0350,98.31,36.61
1711780802932,-0.0035,0.7299,0.0297,98.31,36.61
1711780802936,-0.0044,0.7300,0.0245,98.31,36.61
1711780802940,-0.0053,0.7300,0.0210,98.31,36.61
1711780802944,-0.0061,0.7300,0.0201,98.31,36.61
1711780802948,-0.0070,0.7300,0.0221,98.31,36.61
1711780802952,-0.0079,0.7298,0.0266,98.31,36.61
1711780802956,-0.0088,0.7297,0.0320,98.31,36.61
1711780802960,-0.0096,0.7294,0.0368,98.31,36.61
1711780802964,-0.0105,0.7292,0.0397,98.31,36.61
1711780802968,-0.0113,0.7288,0.0396,98.31,36.61
1711780802972,-0.0122,0.7284,0.0367,98.32,36.61
1711780802976,-0.0130,0.7280,0.0318,98.32,36.61
1711780802980,-0.0138,0.7275,0.0263,98.32,36.61
1711780802984,-0.0146,0.7269,0.0220,98.32,36.61
1711780802988,-0.0154,0.7263,0.0200,98.32,36.61
1711780802992,-0.0161,0.7256,0.0211,98.32,36.61
1711780802996,-0.0169,0.7248,0.0247,98.32,36.61
1711780803000,-0.0176,0.7239,0.0300,98.32,36.61
1711780803004,-0.0184,0.7230,0.0353,98.32,36.62
1711780803008,-0.0191,0.7220,0.0389,98.32,36.62
1711780803012,-0.0198,0.7209,0.0400,98.32,36.62
1711780803016,-0.0204,0.7197,0.0380,98.32,36.62
1711780803020,-0.0211,0.7185,0.0337,98.32,36.62
1711780803024,-0.0217,0.7171,0.0282,98.32,36.62
1711780803028,-0.0223,0.7157,0.0233,98.32,36.62
1711780803032,-0.0229,0.7141,0.0204,98.32,36.62
1711780803036,-0.0235,0.7125,0.0203,98.32,36.62
1711780803040,-0.0241,0.7107,0.0232,98.32,36.62
1711780803044,-0.0247,0.7089,0.0280,98.32,36.62
1711780803048,-0.0255,0.7069,0.0334,98.32,36.62
1711780803052,-0.0267,0.7048,0.0379,98.32,36.62
1711780803056,-0.0289,0.7027,0.0399,98.32,36.62
1711780803060,-0.0327,0.7004,0.0391,98.32,36.62
1711780803064,-0.0393,0.6979,0.0355,98.32,36.62
1711780803068,-0.0497,0.6954,0.0304,98.32,36.62
1711780803072,-0.0644,0.6927,0.0254,98.32,36.62
1711780803076,-0.0826,0.6900,0.0225,98.32,36.62
1711780803080,-0.1017,0.6871,0.0236,98.32,36.62
1711780803084,-0.1179,0.6840,0.0304,98.32,36.62
1711780803088,-0.1268,0.6808,0.0442,98.32,36.62
1711780803092,-0.1233,0.6776,0.0653,98.32,36.62
1711780803096,-0.0995,0.6741,0.0923,98.32,36.62
1711780803100,-0.0376,0.6706,0.1207,98.32,36.62
1711780803104,0.0932,0.6669,0.1440,98.32,36.62
1711780803108,0.3197,0.6631,0.1552,98.32,36.62
1711780803112,0.6209,0.6591,0.1504,98.32,36.62
1711780803116,0.8972,0.6550,0.1310,98.32,36.62
1711780803120,1.0138,0.6508,0.1035,98.32,36.62
1711780803124,0.9068,0.6465,0.0759,98.32,36.62
1711780803128,0.6421,0.6421,0.0547,98.32,36.62
1711780803132,0.3559,0.6375,0.0424,98.32,36.62
1711780803136,0.1474,0.6328,0.0381,98.32,36.62
1711780803140,0.0354,0.6280,0.0384,98.32,36.62
1711780803144,-0.0105,0.6230,0.0400,98.32,36.62
1711780803148,-0.0250,0.6180,0.0404,98.32,36.62
1711780803152,-0.0285,0.6129,0.0384,98.32,36.62
1711780803156,-0.0291,0.6076,0.0342,98.32,36.62
1711780803160,-0.0289,0.6023,0.0288,98.33,36.62
1711780803164,-0.0287,0.5968,0.0237,98.33,36.62
1711780803168,-0.0284,0.5913,0.0206,98.33,36.62
1711780803172,-0.0281,0.5857,0.0202,98.33,36.62
1711780803176,-0.0278,0.5800,0.0228,98.33,36.62
1711780803180,-0.0275,0.5742,0.0275,98.33,36.62
1711780803184,-0.0271,0.5684,0.0330,98.33,36.62
1711780803188,-0.0267,0.5625,0.0375,98.33,36.62
1711780803192,-0.0263,0.5566,0.0399,98.33,36.62
1711780803196,-0.0258,0.5506,0.0393,98.33,36.62
1711780803200,-0.0253,0.5446,0.0359,98.33,36.62
1711780803204,-0.0248,0.5386,0.0308,98.33,36.62
1711780803208,-0.0243,0.5325,0.0254,98.33,36.62
1711780803212,-0.0237,0.5265,0.0214,98.33,36.62
1711780803216,-0.0231,0.5204,0.0200,98.33,36.62
1711780803220,-0.0224,0.5143,0.0216,98.33,36.62
1711780803224,-0.0216,0.5082,0.0256,98.33,36.62
1711780803228,-0.0207,0.5022,0.0310,98.33,36.62
1711780803232,-0.0195,0.4962,0.0361,98.33,36.62
1711780803236,-0.0180,0.4902,0.0393,98.33,36.62
1711780803240,-0.0161,0.4843,0.0398,98.33,36.62
1711780803244,-0.0136,0.4785,0.0374,98.33,36.62
1711780803248,-0.0102,0.4727,0.0327,98.33,36.62
1711780803252,-0.0057,0.4670,0.0273,98.33,36.62
1711780803256,0.0001,0.4613,0.0226,98.33,36.62
1711780803260,0.0076,0.4558,0.0202,98.33,36.62
1711780803264,0.0170,0.4503,0.0207,98.33,36.62
1711780803268,0.0285,0.4450,0.0239,98.33,36.62
1711780803272,0.0420,0.4398,0.0290,98.33,36.62
1711780803276,0.0575,0.4347,0.0344,98.33,36.62
1711780803280,0.0746,0.4298,0.0384,98.33,36.62
1711780803284,0.0928,0.4250,0.0400,98.33,36.62
1711780803288,0.1112,0.4204,0.0386,98.33,36.62
1711780803292,0.1290,0.4159,0.0346,98.33,36.62
1711780803296,0.1451,0.4116,0.0292,98.33,36.62
1711780803300,0.1584,0.4075,0.0241,98.33,36.62
1711780803304,0.1682,0.4035,0.0207,98.33,36.62
1711780803308,0.1737,0.3998,0.0201,98.33,36.62
1711780803312,0.1746,0.3962,0.0225,98.33,36.62
1711780803316,0.1709,0.3929,0.0270,98.33,36.62
1711780803320,0.1629,0.3897,0.0325,98.33,36.62
1711780803324,0.1513,0.3868,0.0372,98.33,36.62
1711780803328,0.1370,0.3841,0.0398,98.33,36.62
1711780803332,0.1209,0.3816,0.0395,98.33,36.62
1711780803336,0.1043,0.3794,0.0363,98.33,36.62
1711780803340,0.0878,0.3774,0.0314,98.33,36.62
1711780803344,0.0725,0.3756,0.0264,98.33,36.62
1711780803348,0.0587,0.3741,0.0229,98.33,36.62
1711780803352,0.0469,0.3728,0.0227,98.33,36.62
1711780803356,0.0371,0.3717,0.0269,98.33,36.62
1711780803360,0.0294,0.3709,0.0357,98.33,36.62
1711780803364,0.0235,0.3704,0.0490,98.33,36.62
1711780803368,0.0193,0.3701,0.0655,98.33,36.62
1711780803372,0.0164,0.3700,0.0836,98.33,36.62
1711780803376,0.0146,0.3702,0.1012,98.33,36.62
1711780803380,0.0136,0.3707,0.1156,98.33,36.62
1711780803384,0.0132,0.3714,0.1246,98.33,36.62
1711780803388,0.0133,0.3723,0.1268,98.34,36.62
1711780803392,0.0136,0.3735,0.1220,98.34,36.62
1711780803396,0.0141,0.3750,0.1117,98.34,36.62
1711780803400,0.0147,0.3766,0.0984,98.34,36.62
1711780803404,0.0154,0.3786,0.0848,98.34,36.62
1711780803408,0.0161,0.3807,0.0730,98.34,36.62
1711780803412,0.0168,0.3831,0.0637,98.34,36.62
1711780803416,0.0175,0.3857,0.0566,98.34,36.62
1711780803420,0.0182,0.3885,0.0505,98.34,36.62
1711780803424,0.0190,0.3916,0.0444,98.34,36.62
1711780803428,0.0196,0.3948,0.0377,98.34,36.62
1711780803432,0.0203,0.3983,0.0310,98.34,36.62
1711780803436,0.0210,0.4019,0.0250,98.34,36.62
1711780803440,0.0216,0.4058,0.0211,98.34,36.62
1711780803444,0.0222,0.4098,0.0201,98.34,36.62
1711780803448,0.0228,0.4140,0.0222,98.34,36.62
1711780803452,0.0234,0.4184,0.0266,98.34,36.62
1711780803456,0.0240,0.4230,0.0320,98.34,36.62
1711780803460,0.0245,0.4277,0.0368,98.34,36.62
1711780803464,0.0250,0.4325,0.0397,98.34,36.62
1711780803468,0.0255,0.4375,0.0396,98.34,36.62
1711780803472,0.0260,0.4426,0.0367,98.34,36.62
1711780803476,0.0264,0.4479,0.0318,98.34,36.62
1711780803480,0.0268,0.4532,0.0263,98.34,36.62
1711780803484,0.0272,0.4587,0.0220,98.34,36.62
1711780803488,0.0276,0.4642,0.0200,98.34,36.62
1711780803492,0.0279,0.4699,0.0211,98.34,36.62
1711780803496,0.0282,0.4756,0.0247,98.34,36.62
1711780803500,0.0285,0.4814,0.0300,98.34,36.62
1711780803504,0.0288,0.4872,0.0353,98.34,36.62
1711780803508,0.0290,0.4931,0.0389,98.34,36.62
1711780803512,0.0293,0.4990,0.0400,98.34,36.62
1711780803516,0.0294,0.5050,0.0380,98.34,36.62
1711780803520,0.0296,0.5110,0.0337,98.34,36.62
1711780803524,0.0297,0.5170,0.0282,98.34,36.62
1711780803528,0.0298,0.5230,0.0233,98.34,36.62
1711780803532,0.0299,0.5290,0.0204,98.34,36.62
1711780803536,0.0300,0.5350,0.0203,98.34,36.62
1711780803540,0.0300,0.5410,0.0232,98.34,36.62
1711780803544,0.0300,0.5469,0.0280,98.34,36.62
1711780803548,0.0300,0.5528,0.0334,98.34,36.62
1711780803552,0.0299,0.5587,0.0379,98.34,36.62
1711780803556,0.0298,0.5646,0.0399,98.34,36.62
1711780803560,0.0297,0.5703,0.0390,98.34,36.62
1711780803564,0.0296,0.5761,0.0355,98.34,36.62
1711780803568,0.0294,0.5817,0.0303,98.34,36.62
1711780803572,0.0292,0.5873,0.0250,98.34,36.62
1711780803576,0.0290,0.5928,0.0212,98.34,36.62
1711780803580,0.0288,0.5982,0.0200,98.34,36.62
1711780803584,0.0285,0.6035,0.0218,98.34,36.62
1711780803588,0.0282,0.6087,0.0261,98.34,36.62
1711780803592,0.0279,0.6139,0.0315,98.34,36.62
1711780803596,0.0275,0.6189,0.0365,98.34,36.62
1711780803600,0.0271,0.6238,0.0395,98.34,36.62
1711780803604,0.0267,0.6286,0.0397,98.34,36.62
1711780803608,0.0263,0.6333,0.0370,98.34,36.62
1711780803612,0.0259,0.6379,0.0322,98.34,36.62
1711780803616,0.0254,0.6423,0.0268,98.34,36.62
1711780803620,0.0249,0.6467,0.0223,98.34,36.62
1711780803624,0.0244,0.6509,0.0201,98.34,36.62
1711780803628,0.0239,0.6550,0.0208,98.34,36.62
1711780803632,0.0233,0.6589,0.0243,98.34,36.62
1711780803636,0.0227,0.6628,0.0295,98.34,36.62
1711780803640,0.0221,0.6665,0.0348,98.34,36.62
1711780803644,0.0215,0.6701,0.0387,98.34,36.62
1711780803648,0.0209,0.6735,0.0400,98.34,36.62
1711780803652,0.0202,0.6769,0.0383,98.34,36.62
1711780803656,0.0195,0.6801,0.0341,98.34,36.62
1711780803660,0.0188,0.6832,0.0287,98.34,36.62
1711780803664,0.0181,0.6861,0.0237,98.34,36.62
1711780803668,0.0174,0.6890,0.0206,98.34,36.62
1711780803672,0.0166,0.6917,0.0202,98.34,36.62
1711780803676,0.0159,0.6943,0.0228,98.34,36.62
1711780803680,0.0151,0.6968,0.0275,98.34,36.62
1711780803684,0.0143,0.6991,0.0330,98.34,36.62
1711780803688,0.0135,0.7014,0.0375,98.34,36.62
1711780803692,0.0127,0.7035,0.0399,98.34,36.62
1711780803696,0.0119,0.7056,0.0393,98.34,36.62
1711780803700,0.0110,0.7075,0.0359,98.34,36.62
1711780803704,0.0102,0.7094,0.0308,98.34,36.62
1711780803708,0.0093,0.7111,0.0254,98.34,36.62
1711780803712,0.0085,0.7127,0.0214,98.34,36.62
1711780803716,0.0076,0.7143,0.0200,98.34,36.62
1711780803720,0.0067,0.7157,0.0216,98.35,36.62
1711780803724,0.0058,0.7171,0.0256,98.35,36.62
1711780803728,0.0050,0.7184,0.0310,98.35,36.62
1711780803732,0.0041,0.7196,0.0361,98.35,36.62
1711780803736,0.0032,0.7207,0.0393,98.35,36.62
1711780803740,0.0023,0.7218,0.0398,98.35,36.62
1711780803744,0.0014,0.7227,0.0374,98.35,36.62
1711780803748,0.0005,0.7236,0.0327,98.35,36.62
1711780803752,-0.0005,0.7245,0.0273,98.35,36.62
1711780803756,-0.0014,0.7252,0.0226,98.35,36.62
1711780803760,-0.0023,0.7259,0.0202,98.35,36.62
1711780803764,-0.0032,0.7266,0.0207,98.35,36.62
1711780803768,-0.0041,0.7272,0.0239,98.35,36.62
1711780803772,-0.0050,0.7277,0.0290,98.35,36.62
1711780803776,-0.0058,0.7282,0.0344,98.35,36.62
1711780803780,-0.0067,0.7286,0.0384,98.35,36.62
1711780803784,-0.0076,0.7289,0.0400,98.35,36.62
1711780803788,-0.0085,0.7293,0.0386,98.35,36.62
1711780803792,-0.0093,0.7295,0.0346,98.35,36.62
1711780803796,-0.0102,0.7297,0.0292,98.35,36.62
1711780803800,-0.0110,0.7299,0.0241,98.35,36.62
1711780803804,-0.0119,0.7300,0.0207,98.35,36.62
1711780803808,-0.0127,0.7300,0.0201,98.35,36.62
1711780803812,-0.0135,0.7300,0.0225,98.35,36.62
1711780803816,-0.0143,0.7300,0.0270,98.35,36.62
1711780803820,-0.0151,0.7299,0.0325,98.35,36.62
1711780803824,-0.0159,0.7297,0.0372,98.35,36.62
1711780803828,-0.0166,0.7295,0.0398,98.35,36.62
1711780803832,-0.0174,0.7293,0.0394,98.35,36.62
1711780803836,-0.0181,0.7290,0.0363,98.35,36.62
1711780803840,-0.0188,0.7286,0.0313,98.35,36.62
1711780803844,-0.0195,0.7282,0.0259,98.35,36.62
1711780803848,-0.0202,0.7277,0.0217,98.35,36.62
1711780803852,-0.0209,0.7271,0.0200,98.35,36.62
1711780803856,-0.0215,0.7265,0.0213,98.35,36.62
1711780803860,-0.0221,0.7258,0.0252,98.35,36.62
1711780803864,-0.0227,0.7251,0.0305,98.35,36.62
1711780803868,-0.0233,0.7243,0.0357,98.35,36.62
1711780803872,-0.0239,0.7234,0.0392,98.35,36.62
1711780803876,-0.0244,0.7224,0.0399,98.35,36.62
1711780803880,-0.0249,0.7213,0.0377,98.35,36.62
1711780803884,-0.0254,0.7202,0.0332,98.35,36.62
1711780803888,-0.0259,0.7190,0.0278,98.35,36.62
1711780803892,-0.0263,0.7176,0.0230,98.35,36.62
1711780803896,-0.0267,0.7162,0.0203,98.35,36.62
1711780803900,-0.0271,0.7147,0.0205,98.35,36.62
1711780803904,-0.0275,0.7131,0.0235,98.35,36.62
1711780803908,-0.0279,0.7114,0.0285,98.35,36.62
1711780803912,-0.0282,0.7096,0.0339,98.35,36.62
1711780803916,-0.0285,0.7077,0.0382,98.35,36.62
1711780803920,-0.0288,0.7057,0.0400,98.35,36.62
1711780803924,-0.0290,0.7035,0.0388,98.35,36.62
1711780803928,-0.0292,0.7013,0.0350,98.35,36.62
1711780803932,-0.0294,0.6989,0.0297,98.35,36.62
1711780803936,-0.0296,0.6964,0.0245,98.35,36.62
1711780803940,-0.0297,0.6938,0.0210,98.35,36.62
1711780803944,-0.0298,0.6911,0.0201,98.35,36.62
1711780803948,-0.0299,0.6882,0.0221,98.35,36.62
1711780803952,-0.0300,0.6852,0.0266,98.35,36.62
1711780803956,-0.0300,0.6821,0.0320,98.35,36.62
1711780803960,-0.0300,0.6789,0.0368,98.35,36.62
1711780803964,-0.0300,0.6755,0.0397,98.35,36.62
1711780803968,-0.0299,0.6720,0.0396,98.35,36.62
1711780803972,-0.0298,0.6683,0.0367,98.35,36.62
1711780803976,-0.0297,0.6646,0.0318,98.35,36.62
1711780803980,-0.0296,0.6607,0.0263,98.35,36.62
1711780803984,-0.0294,0.6567,0.0220,98.35,36.62
1711780803988,-0.0293,0.6525,0.0200,98.35,36.62
1711780803992,-0.0290,0.6482,0.0211,98.35,36.62
1711780803996,-0.0288,0.6438,0.0247,98.35,36.62
1711780804000,-0.0285,0.6393,0.0300,98.35,36.62
1711780804004,-0.0282,0.6346,0.0353,98.35,36.62
1711780804008,-0.0279,0.6299,0.0389,98.35,36.62
1711780804012,-0.0276,0.6250,0.0400,98.35,36.62
1711780804016,-0.0272,0.6200,0.0380,98.35,36.62
1711780804020,-0.0268,0.6149,0.0337,98.35,36.62
1711780804024,-0.0264,0.6097,0.0282,98.35,36.62
1711780804028,-0.0260,0.6044,0.0233,98.35,36.62
1711780804032,-0.0255,0.5990,0.0204,98.35,36.62
1711780804036,-0.0250,0.5935,0.0203,98.35,36.62
1711780804040,-0.0245,0.5879,0.0232,98.35,36.62
1711780804044,-0.0241,0.5822,0.0280,98.35,36.62
1711780804048,-0.0238,0.5765,0.0334,98.35,36.62
1711780804052,-0.0240,0.5707,0.0379,98.35,36.62
1711780804056,-0.0250,0.5648,0.0399,98.35,36.62
1711780804060,-0.0278,0.5589,0.0391,98.35,36.62
1711780804064,-0.0334,0.5530,0.0355,98.35,36.62
1711780804068,-0.0428,0.5470,0.0304,98.35,36.62
1711780804072,-0.0564,0.5409,0.0254,98.35,36.62
1711780804076,-0.0736,0.5349,0.0225,98.35,36.62
1711780804080,-0.0917,0.5288,0.0236,98.35,36.62
1711780804084,-0.1069,0.5228,0.0304,98.35,36.62
1711780804088,-0.1147,0.5167,0.0442,98.35,36.62
1711780804092,-0.1102,0.5106,0.0653,98.35,36.62
1711780804096,-0.0855,0.5046,0.0923,98.35,36.62
1711780804100,-0.0226,0.4986,0.1207,98.35,36.62
1711780804104,0.1092,0.4926,0.1440,98.35,36.62
1711780804108,0.3366,0.4866,0.1552,98.35,36.62
1711780804112,0.6388,0.4808,0.1504,98.35,36.62
1711780804116,0.9160,0.4749,0.1310,98.35,36.62
1711780804120,1.0334,0.4692,0.1035,98.35,36.62
1711780804124,0.9273,0.4635,0.0759,98.35,36.62
1711780804128,0.6635,0.4579,0.0547,98.35,36.62
1711780804132,0.3781,0.4525,0.0424,98.35,36.62
1711780804136,0.1704,0.4471,0.0381,98.35,36.62
1711780804140,0.0592,0.4418,0.0384,98.35,36.62
1711780804144,0.0141,0.4367,0.0400,98.35,36.62
1711780804148,0.0003,0.4317,0.0404,98.35,36.62
1711780804152,-0.0025,0.4269,0.0384,98.35,36.62
1711780804156,-0.0023,0.4222,0.0342,98.35,36.62
1711780804160,-0.0015,0.4176,0.0288,98.35,36.62
1711780804164,-0.0006,0.4133,0.0237,98.35,36.62
1711780804168,0.0003,0.4091,0.0206,98.35,36.62
1711780804172,0.0012,0.4051,0.0202,98.35,36.62
1711780804176,0.0021,0.4012,0.0228,98.35,36.62
1711780804180,0.0030,0.3976,0.0275,98.35,36.62
1711780804184,0.0039,0.3942,0.0330,98.35,36.62
1711780804188,0.0048,0.3909,0.0375,98.35,36.62
1711780804192,0.0057,0.3879,0.0399,98.35,36.62
1711780804196,0.0066,0.3851,0.0393,98.35,36.62
1711780804200,0.0075,0.3826,0.0359,98.35,36.62
1711780804204,0.0084,0.3802,0.0308,98.35,36.62
1711780804208,0.0092,0.3781,0.0254,98.35,36.62
1711780804212,0.0101,0.3763,0.0214,98.35,36.62
1711780804216,0.0110,0.3746,0.0200,98.35,36.62
1711780804220,0.0120,0.3732,0.0216,98.35,36.62
1711780804224,0.0130,0.3721,0.0256,98.35,36.62
1711780804228,0.0141,0.3712,0.0310,98.35,36.62
1711780804232,0.0154,0.3706,0.0361,98.35,36.62
1711780804236,0.0170,0.3702,0.0393,98.35,36.62
1711780804240,0.0191,0.3700,0.0398,98.35,36.62
1711780804244,0.0217,0.3701,0.0374,98.35,36.62
1711780804248,0.0251,0.3705,0.0327,98.35,36.62
1711780804252,0.0295,0.3711,0.0273,98.35,36.62
1711780804256,0.0354,0.3719,0.0226,98.35,36.62
1711780804260,0.0428,0.3730,0.0202,98.35,36.62
1711780804264,0.0521,0.3744,0.0207,98.35,36.62
1711780804268,0.0634,0.3759,0.0239,98.35,36.62
1711780804272,0.0768,0.3778,0.0290,98.35,36.62
1711780804276,0.0921,0.3798,0.0344,98.35,36.62
1711780804280,0.1090,0.3821,0.0384,98.35,36.62
1711780804284,0.1269,0.3846,0.0400,98.35,36.62
1711780804288,0.1450,0.3874,0.0386,98.35,36.62
1711780804292,0.1625,0.3904,0.0346,98.35,36.62
1711780804296,0.1782,0.3935,0.0292,98.35,36.62
1711780804300,0.1912,0.3969,0.0241,98.35,36.62
1711780804304,0.2006,0.4005,0.0207,98.35,36.62
1711780804308,0.2057,0.4043,0.0201,98.35,36.62
1711780804312,0.2061,0.4082,0.0225,98.35,36.62
1711780804316,0.2019,0.4124,0.0270,98.35,36.62
1711780804320,0.1933,0.4167,0.0325,98.35,36.62
1711780804324,0.1812,0.4212,0.0372,98.35,36.62
1711780804328,0.1663,0.4258,0.0398,98.35,36.62
1711780804332,0.1497,0.4306,0.0395,98.35,36.62
1711780804336,0.1324,0.4355,0.0363,98.35,36.62
1711780804340,0.1153,0.4406,0.0314,98.35,36.62
1711780804344,0.0992,0.4458,0.0264,98.35,36.62
1711780804348,0.0848,0.4511,0.0229,98.35,36.62
1711780804352,0.0722,0.4565,0.0227,98.35,36.62
1711780804356,0.0617,0.4620,0.0269,98.35,36.62
1711780804360,0.0532,0.4676,0.0357,98.35,36.62
1711780804364,0.0465,0.4733,0.0490,98.35,36.62
1711780804368,0.0415,0.4791,0.0655,98.35,36.62
1711780804372,0.0378,0.4849,0.0836,98.35,36.62
1711780804376,0.0351,0.4908,0.1012,98.35,36.62
1711780804380,0.0333,0.4967,0.1156,98.35,36.62
1711780804384,0.0320,0.5026,0.1246,98.35,36.62
1711780804388,0.0311,0.5086,0.1268,98.35,36.62
1711780804392,0.0305,0.5146,0.1220,98.35,36.62
1711780804396,0.0301,0.5206,0.1117,98.35,36.62
1711780804400,0.0297,0.5266,0.0984,98.35,36.62
1711780804404,0.0294,0.5326,0.0848,98.35,36.62
1711780804408,0.0291,0.5386,0.0730,98.35,36.62
1711780804412,0.0289,0.5446,0.0637,98.35,36.62
1711780804416,0.0286,0.5505,0.0566,98.35,36.62
1711780804420,0.0283,0.5564,0.0505,98.35,36.62
1711780804424,0.0280,0.5623,0.0444,98.35,36.62
1711780804428,0.0276,0.5681,0.0377,98.35,36.62
1711780804432,0.0273,0.5738,0.0310,98.35,36.62
1711780804436,0.0269,0.5795,0.0250,98.35,36.62
1711780804440,0.0265,0.5851,0.0211,98.35,36.62
1711780804444,0.0260,0.5906,0.0201,98.35,36.62
1711780804448,0.0256,0.5961,0.0222,98.35,36.62
1711780804452,0.0251,0.6014,0.0266,98.35,36.62
1711780804456,0.0246,0.6067,0.0320,98.35,36.62
1711780804460,0.0240,0.6119,0.0368,98.35,36.62
1711780804464,0.0235,0.6169,0.0397,98.35,36.62
1711780804468,0.0229,0.6219,0.0396,98.35,36.62
1711780804472,0.0223,0.6267,0.0367,98.35,36.62
1711780804476,0.0217,0.6315,0.0318,98.35,36.62
1711780804480,0.0211,0.6361,0.0263,98.35,36.62
1711780804484,0.0204,0.6406,0.0220,98.35,36.62
1711780804488,0.0198,0.6450,0.0200,98.35,36.62
1711780804492,0.0191,0.6492,0.0211,98.35,36.62
1711780804496,0.0184,0.6534,0.0247,98.35,36.62
1711780804500,0.0176,0.6574,0.0300,98.35,36.62
1711780804504,0.0169,0.6613,0.0353,98.35,36.62
1711780804508,0.0161,0.6650,0.0389,98.35,36.62
1711780804512,0.0154,0.6687,0.0400,98.35,36.62
1711780804516,0.0146,0.6722,0.0380,98.35,36.62
1711780804520,0.0138,0.6756,0.0337,98.35,36.62
1711780804524,0.0130,0.6788,0.0282,98.35,36.62
1711780804528,0.0122,0.6820,0.0233,98.35,36.62
1711780804532,0.0113,0.6850,0.0204,98.35,36.62
1711780804536,0.0105,0.6879,0.0203,98.35,36.62
1711780804540,0.0096,0.6906,0.0232,98.35,36.62
1711780804544,0.0088,0.6933,0.0280,98.35,36.62
1711780804548,0.0079,0.6958,0.0334,98.35,36.62
1711780804552,0.0070,0.6982,0.0379,98.35,36.62
1711780804556,0.0061,0.7005,0.0399,98.35,36.62
1711780804560,0.0053,0.7027,0.0390,98.35,36.62
1711780804564,0.0044,0.7048,0.0355,98.35,36.62
1711780804568,0.0035,0.7068,0.0303,98.35,36.62
1711780804572,0.0026,0.7086,0.0250,98.35,36.62
1711780804576,0.0017,0.7104,0.0212,98.35,36.62
1711780804580,0.0008,0.7121,0.0200,98.35,36.62
1711780804584,-0.0002,0.7137,0.0218,98.35,36.62
1711780804588,-0.0011,0.7152,0.0261,98.35,36.62
1711780804592,-0.0020,0.7166,0.0315,98.35,36.62
1711780804596,-0.0029,0.7179,0.0365,98.35,36.62
1711780804600,-0.0038,0.7191,0.0395,98.35,36.62
1711780804604,-0.0047,0.7203,0.0397,98.35,36.62
1711780804608,-0.0055,0.7214,0.0370,98.35,36.62
1711780804612,-0.0064,0.7224,0.0322,98.35,36.62
1711780804616,-0.0073,0.7233,0.0268,98.34,36.62
1711780804620,-0.0082,0.7242,0.0223,98.34,36.62
1711780804624,-0.0091,0.7249,0.0201,98.34,36.62
1711780804628,-0.0099,0.7257,0.0208,98.34,36.62
1711780804632,-0.0108,0.7263,0.0243,98.34,36.62
1711780804636,-0.0116,0.7269,0.0295,98.34,36.62
1711780804640,-0.0124,0.7275,0.0348,98.34,36.62
1711780804644,-0.0132,0.7280,0.0387,98.34,36.62
1711780804648,-0.0141,0.7284,0.0400,98.34,36.62
1711780804652,-0.0148,0.7288,0.0383,98.34,36.62
1711780804656,-0.0156,0.7291,0.0341,98.34,36.62
1711780804660,-0.0164,0.7294,0.0287,98.34,36.62
1711780804664,-0.0171,0.7296,0.0237,98.34,36.62
1711780804668,-0.0179,0.7298,0.0206,98.34,36.62
1711780804672,-0.0186,0.7299,0.0202,98.34,36.62
1711780804676,-0.0193,0.7300,0.0228,98.34,36.62
1711780804680,-0.0200,0.7300,0.0275,98.34,36.62
1711780804684,-0.0206,0.7300,0.0330,98.34,36.62
1711780804688,-0.0213,0.7299,0.0375,98.34,36.62
1711780804692,-0.0219,0.7298,0.0399,98.34,36.62
1711780804696,-0.0225,0.7296,0.0393,98.34,36.62
1711780804700,-0.0231,0.7294,0.0359,98.34,36.62
1711780804704,-0.0237,0.7291,0.0308,98.34,36.62
1711780804708,-0.0242,0.7288,0.0254,98.34,36.62
1711780804712,-0.0247,0.7284,0.0214,98.34,36.62
1711780804716,-0.0252,0.7279,0.0200,98.34,36.62
1711780804720,-0.0257,0.7274,0.0216,98.34,36.62
1711780804724,-0.0262,0.7268,0.0256,98.34,36.62
1711780804728,-0.0266,0.7261,0.0310,98.34,36.62
1711780804732,-0.0270,0.7254,0.0361,98.34,36.62
1711780804736,-0.0274,0.7246,0.0393,98.34,36.62
1711780804740,-0.0278,0.7237,0.0398,98.34,36.62
1711780804744,-0.0281,0.7228,0.0374,98.34,36.62
1711780804748,-0.0284,0.7218,0.0327,98.34,36.62
1711780804752,-0.0287,0.7206,0.0273,98.34,36.62
1711780804756,-0.0289,0.7195,0.0226,98.34,36.62
1711780804760,-0.0291,0.7182,0.0202,98.34,36.62
1711780804764,-0.0293,0.7168,0.0207,98.34,36.62
1711780804768,-0.0295,0.7153,0.0239,98.34,36.62
1711780804772,-0.0297,0.7138,0.0290,98.34,36.62
1711780804776,-0.0298,0.7121,0.0344,98.34,36.62
1711780804780,-0.0299,0.7103,0.0384,98.34,36.62
1711780804784,-0.0299,0.7085,0.0400,98.34,36.62
1711780804788,-0.0300,0.7065,0.0386,98.34,36.62
1711780804792,-0.0300,0.7044,0.0346,98.34,36.62
1711780804796,-0.0300,0.7022,0.0292,98.34,36.62
1711780804800,-0.0299,0.6998,0.0241,98.34,36.62
1711780804804,-0.0299,0.6974,0.0207,98.34,36.62
1711780804808,-0.0298,0.6948,0.0201,98.34,36.62
1711780804812,-0.0296,0.6922,0.0225,98.34,36.62
1711780804816,-0.0295,0.6893,0.0270,98.34,36.62
1711780804820,-0.0293,0.6864,0.0325,98.34,36.62
1711780804824,-0.0291,0.6833,0.0372,98.34,36.62
1711780804828,-0.0289,0.6801,0.0398,98.34,36.62
1711780804832,-0.0286,0.6768,0.0394,98.34,36.62
1711780804836,-0.0283,0.6734,0.0363,98.34,36.62
1711780804840,-0.0280,0.6698,0.0313,98.34,36.62
1711780804844,-0.0277,0.6661,0.0259,98.34,36.62
1711780804848,-0.0273,0.6622,0.0217,98.34,36.62
1711780804852,-0.0269,0.6582,0.0200,98.34,36.62
1711780804856,-0.0265,0.6541,0.0213,98.34,36.62
1711780804860,-0.0261,0.6499,0.0252,98.34,36.62
1711780804864,-0.0256,0.6456,0.0305,98.34,36.62
1711780804868,-0.0252,0.6411,0.0357,98.34,36.62
1711780804872,-0.0247,0.6365,0.0392,98.34,36.62
1711780804876,-0.0241,0.6317,0.0399,98.34,36.62
1711780804880,-0.0236,0.6269,0.0377,98.34,36.62
1711780804884,-0.0230,0.6220,0.0332,98.34,36.62
1711780804888,-0.0224,0.6169,0.0278,98.34,36.62
1711780804892,-0.0218,0.6117,0.0230,98.34,36.62
1711780804896,-0.0212,0.6065,0.0203,98.34,36.62
1711780804900,-0.0205,0.6011,0.0205,98.34,36.62
1711780804904,-0.0199,0.5956,0.0235,98.34,36.62
1711780804908,-0.0192,0.5901,0.0285,98.34,36.62
1711780804912,-0.0185,0.5845,0.0339,98.34,36.62
1711780804916,-0.0178,0.5788,0.0382,98.34,36.62
1711780804920,-0.0170,0.5730,0.0400,98.34,36.62
1711780804924,-0.0163,0.5671,0.0388,98.34,36.62
1711780804928,-0.0155,0.5613,0.0350,98.34,36.62
1711780804932,-0.0147,0.5553,0.0297,98.34,36.62
1711780804936,-0.0139,0.5493,0.0245,98.34,36.62
1711780804940,-0.0131,0.5433,0.0210,98.34,36.62
1711780804944,-0.0123,0.5373,0.0201,98.34,36.62
1711780804948,-0.0115,0.5312,0.0221,98.33,36.62
1711780804952,-0.0106,0.5251,0.0266,98.33,36.62
1711780804956,-0.0098,0.5191,0.0320,98.33,36.62
1711780804960,-0.0089,0.5130,0.0368,98.33,36.62
1711780804964,-0.0080,0.5069,0.0397,98.33,36.62
1711780804968,-0.0072,0.5009,0.0396,98.33,36.62
1711780804972,-0.0063,0.4949,0.0367,98.33,36.62
1711780804976,-0.0054,0.4890,0.0318,98.33,36.62
1711780804980,-0.0045,0.4830,0.0263,98.33,36.62
1711780804984,-0.0036,0.4772,0.0220,98.33,36.62
1711780804988,-0.0027,0.4714,0.0200,98.33,36.62
1711780804992,-0.0018,0.4657,0.0211,98.33,36.62
1711780804996,-0.0009,0.4601,0.0247,98.33,36.62
1711780805000,0.0000,0.4546,0.0300,98.33,36.62
1711780805004,0.0009,0.4492,0.0353,98.33,36.62
1711780805008,0.0018,0.4439,0.0389,98.33,36.62
1711780805012,0.0027,0.4387,0.0400,98.33,36.62
1711780805016,0.0036,0.4337,0.0380,98.33,36.62
1711780805020,0.0045,0.4288,0.0337,98.33,36.62
1711780805024,0.0054,0.4240,0.0282,98.33,36.62
1711780805028,0.0063,0.4194,0.0233,98.33,36.62
1711780805032,0.0072,0.4150,0.0204,98.33,36.62
1711780805036,0.0080,0.4107,0.0203,98.33,36.62
1711780805040,0.0089,0.4066,0.0232,98.33,36.62
1711780805044,0.0096,0.4027,0.0280,98.33,36.62
1711780805048,0.0102,0.3990,0.0334,98.33,36.62
1711780805052,0.0103,0.3955,0.0379,98.33,36.62
1711780805056,0.0095,0.3922,0.0399,98.33,36.62
1711780805060,0.0069,0.3891,0.0391,98.33,36.63
1711780805064,0.0015,0.3862,0.0355,98.33,36.63
1711780805068,-0.0077,0.3835,0.0304,98.33,36.63
1711780805072,-0.0213,0.3811,0.0254,98.33,36.63
1711780805076,-0.0383,0.3789,0.0225,98.33,36.63
1711780805080,-0.0564,0.3770,0.0236,98.33,36.63
1711780805084,-0.0716,0.3752,0.0304,98.33,36.63
1711780805088,-0.0794,0.3738,0.0442,98.33,36.63
1711780805092,-0.0751,0.3725,0.0653,98.33,36.63
1711780805096,-0.0504,0.3715,0.0923,98.33,36.63
1711780805100,0.0124,0.3708,0.1207,98.33,36.63
1711780805104,0.1440,0.3703,0.1440,98.33,36.63
1711780805108,0.3713,0.3700,0.1552,98.33,36.63
1711780805112,0.6732,0.3700,0.1504,98.33,36.63
1711780805116,0.9502,0.3703,0.1310,98.33,36.63
1711780805120,1.0674,0.3708,0.1035,98.33,36.63
1711780805124,0.9609,0.3716,0.0759,98.33,36.63
1711780805128,0.6967,0.3726,0.0547,98.33,36.63
1711780805132,0.4110,0.3738,0.0424,98.33,36.63
1711780805136,0.2030,0.3753,0.0381,98.33,36.63
1711780805140,0.0913,0.3770,0.0384,98.33,36.63
1711780805144,0.0458,0.3790,0.0400,98.33,36.63
1711780805148,0.0315,0.3812,0.0404,98.33,36.63
1711780805152,0.0282,0.3836,0.0384,98.33,36.63
1711780805156,0.0278,0.3863,0.0342,98.33,36.63
1711780805160,0.0280,0.3892,0.0288,98.33,36.63
1711780805164,0.0283,0.3923,0.0237,98.33,36.63
1711780805168,0.0286,0.3956,0.0206,98.33,36.63
1711780805172,0.0289,0.3991,0.0202,98.33,36.63
1711780805176,0.0291,0.4028,0.0228,98.32,36.63
1711780805180,0.0293,0.4067,0.0275,98.32,36.63
1711780805184,0.0295,0.4107,0.0330,98.32,36.63
1711780805188,0.0296,0.4150,0.0375,98.32,36.63
1711780805192,0.0298,0.4194,0.0399,98.32,36.63
1711780805196,0.0299,0.4240,0.0393,98.32,36.63
1711780805200,0.0300,0.4287,0.0359,98.32,36.63
1711780805204,0.0300,0.4336,0.0308,98.32,36.63
1711780805208,0.0300,0.4386,0.0254,98.32,36.63
1711780805212,0.0301,0.4438,0.0214,98.32,36.63
1711780805216,0.0301,0.4490,0.0200,98.32,36.63
1711780805220,0.0301,0.4544,0.0216,98.32,36.63
1711780805224,0.0302,0.4599,0.0256,98.32,36.63
1711780805228,0.0304,0.4654,0.0310,98.32,36.63
1711780805232,0.0308,0.4711,0.0361,98.32,36.63
1711780805236,0.0314,0.4768,0.0393,98.32,36.63
1711780805240,0.0324,0.4826,0.0398,98.32,36.63
1711780805244,0.0341,0.4885,0.0374,98.32,36.63
1711780805248,0.0365,0.4944,0.0327,98.32,36.63
1711780805252,0.0399,0.5003,0.0273,98.32,36.63
1711780805256,0.0447,0.5063,0.0226,98.32,36.63
1711780805260,0.0511,0.5123,0.0202,98.32,36.63
1711780805264,0.0594,0.5183,0.0207,98.32,36.63
1711780805268,0.0697,0.5243,0.0239,98.32,36.63
1711780805272,0.0820,0.5303,0.0290,98.32,36.63
1711780805276,0.0962,0.5363,0.0344,98.32,36.63
1711780805280,0.1121,0.5423,0.0384,98.32,36.63
1711780805284,0.1289,0.5482,0.0400,98.32,36.63
1711780805288,0.1460,0.5541,0.0386,98.32,36.63
1711780805292,0.1624,0.5600,0.0346,98.32,36.63
1711780805296,0.1771,0.5658,0.0292,98.32,36.63
1711780805300,0.1890,0.5716,0.0241,98.32,36.63
1711780805304,0.1973,0.5773,0.0207,98.32,36.63
1711780805308,0.2013,0.5829,0.0201,98.32,36.63
1711780805312,0.2007,0.5885,0.0225,98.32,36.63
1711780805316,0.1954,0.5940,0.0270,98.32,36.63
1711780805320,0.1859,0.5993,0.0325,98.32,36.63
1711780805324,0.1727,0.6046,0.0372,98.32,36.63
1711780805328,0.1568,0.6098,0.0398,98.32,36.63
1711780805332,0.1391,0.6150,0.0395,98.32,36.63
1711780805336,0.1208,0.6200,0.0363,98.32,36.63
1711780805340,0.1027,0.6248,0.0314,98.32,36.63
1711780805344,0.0857,0.6296,0.0264,98.32,36.63
1711780805348,0.0702,0.6343,0.0229,98.32,36.63
1711780805352,0.0567,0.6388,0.0227,98.32,36.63
1711780805356,0.0452,0.6433,0.0269,98.32,36.63
1711780805360,0.0358,0.6476,0.0357,98.32,36.63
1711780805364,0.0283,0.6518,0.0490,98.31,36.63
1711780805368,0.0223,0.6558,0.0655,98.31,36.63
1711780805372,0.0177,0.6598,0.0836,98.31,36.63
1711780805376,0.0142,0.6636,0.1012,98.31,36.63
1711780805380,0.0115,0.6673,0.1156,98.31,36.63
1711780805384,0.0094,0.6708,0.1246,98.31,36.63
1711780805388,0.0077,0.6743,0.1268,98.31,36.63
1711780805392,0.0063,0.6776,0.1220,98.31,36.63
1711780805396,0.0051,0.6807,0.1117,98.31,36.63
1711780805400,0.0040,0.6838,0.0984,98.31,36.63
1711780805404,0.0030,0.6867,0.0848,98.31,36.63
1711780805408,0.0020,0.6896,0.0730,98.31,36.63
1711780805412,0.0011,0.6923,0.0637,98.31,36.63
1711780805416,0.0002,0.6948,0.0566,98.31,36.63
1711780805420,-0.0007,0.6973,0.0505,98.31,36.63
1711780805424,-0.0017,0.6996,0.0444,98.31,36.63
1711780805428,-0.0026,0.7019,0.0377,98.31,36.63
1711780805432,-0.0035,0.7040,0.0310,98.31,36.63
1711780805436,-0.0044,0.7060,0.0250,98.31,36.63
1711780805440,-0.0053,0.7079,0.0211,98.31,36.63
1711780805444,-0.0061,0.7097,0.0201,98.31,36.63
1711780805448,-0.0070,0.7115,0.0222,98.31,36.63
1711780805452,-0.0079,0.7131,0.0266,98.31,36.63
1711780805456,-0.0088,0.7146,0.0320,98.31,36.63
1711780805460,-0.0096,0.7160,0.0368,98.31,36.63
1711780805464,-0.0105,0.7174,0.0397,98.31,36.63
1711780805468,-0.0113,0.7187,0.0396,98.31,36.63
1711780805472,-0.0122,0.7198,0.0367,98.31,36.63
1711780805476,-0.0130,0.7209,0.0318,98.31,36.63
1711780805480,-0.0138,0.7220,0.0263,98.31,36.63
1711780805484,-0.0146,0.7229,0.0220,98.31,36.63
1711780805488,-0.0154,0.7238,0.0200,98.31,36.63
1711780805492,-0.0161,0.7246,0.0211,98.31,36.63
1711780805496,-0.0169,0.7254,0.0247,98.31,36.63
1711780805500,-0.0176,0.7261,0.0300,98.31,36.63
1711780805504,-0.0184,0.7267,0.0353,98.31,36.63
1711780805508,-0.0191,0.7273,0.0389,98.31,36.63
1711780805512,-0.0198,0.7278,0.0400,98.31,36.63
1711780805516,-0.0204,0.7283,0.0380,98.31,36.63
1711780805520,-0.0211,0.7287,0.0337,98.31,36.63
1711780805524,-0.0217,0.7290,0.0282,98.31,36.63
1711780805528,-0.0223,0.7293,0.0233,98.30,36.63
1711780805532,-0.0229,0.7296,0.0204,98.30,36.63
1711780805536,-0.0235,0.7298,0.0203,98.30,36.63
1711780805540,-0.0240,0.7299,0.0232,98.30,36.63
1711780805544,-0.0246,0.7300,0.0280,98.30,36.63
1711780805548,-0.0251,0.7300,0.0334,98.30,36.63
1711780805552,-0.0256,0.7300,0.0379,98.30,36.63
1711780805556,-0.0260,0.7300,0.0399,98.30,36.63
1711780805560,-0.0265,0.7299,0.0390,98.30,36.63
1711780805564,-0.0269,0.7297,0.0355,98.30,36.63
1711780805568,-0.0273,0.7295,0.0303,98.30,36.63
1711780805572,-0.0276,0.7292,0.0250,98.30,36.63
1711780805576,-0.0280,0.7289,0.0212,98.30,36.63
1711780805580,-0.0283,0.7285,0.0200,98.30,36.63
1711780805584,-0.0286,0.7281,0.0218,98.30,36.63
1711780805588,-0.0288,0.7276,0.0261,98.30,36.63
1711780805592,-0.0291,0.7270,0.0315,98.30,36.63
1711780805596,-0.0293,0.7264,0.0365,98.30,36.63
1711780805600,-0.0295,0.7257,0.0395,98.30,36.63
1711780805604,-0.0296,0.7249,0.0397,98.30,36.63
1711780805608,-0.0298,0.7241,0.0370,98.30,36.63
1711780805612,-0.0299,0.7232,0.0322,98.30,36.63
1711780805616,-0.0299,0.7222,0.0268,98.30,36.63
1711780805620,-0.0300,0.7211,0.0223,98.30,36.63
1711780805624,-0.0300,0.7199,0.0201,98.30,36.63
1711780805628,-0.0300,0.7187,0.0208,98.30,36.63
1711780805632,-0.0300,0.7173,0.0243,98.30,36.63
1711780805636,-0.0299,0.7159,0.0295,98.30,36.63
1711780805640,-0.0298,0.7144,0.0348,98.30,36.63
1711780805644,-0.0297,0.7128,0.0387,98.30,36.63
1711780805648,-0.0296,0.7110,0.0400,98.30,36.63
1711780805652,-0.0294,0.7092,0.0383,98.30,36.63
1711780805656,-0.0292,0.7073,0.0341,98.30,36.63
1711780805660,-0.0290,0.7052,0.0287,98.30,36.63
1711780805664,-0.0287,0.7031,0.0237,98.30,36.63
1711780805668,-0.0284,0.7008,0.0206,98.30,36.63
1711780805672,-0.0281,0.6984,0.0202,98.30,36.63
1711780805676,-0.0278,0.6959,0.0228,98.29,36.63
1711780805680,-0.0275,0.6932,0.0275,98.29,36.63
1711780805684,-0.0271,0.6905,0.0330,98.29,36.63
1711780805688,-0.0267,0.6876,0.0375,98.29,36.63
1711780805692,-0.0263,0.6846,0.0399,98.29,36.63
1711780805696,-0.0258,0.6814,0.0393,98.29,36.63
1711780805700,-0.0253,0.6781,0.0359,98.29,36.63
1711780805704,-0.0248,0.6747,0.0308,98.29,36.63
1711780805708,-0.0243,0.6712,0.0254,98.29,36.63
1711780805712,-0.0238,0.6675,0.0214,98.29,36.63
1711780805716,-0.0232,0.6637,0.0200,98.29,36.63
1711780805720,-0.0226,0.6598,0.0216,98.29,36.63
1711780805724,-0.0220,0.6558,0.0256,98.29,36.63
1711780805728,-0.0214,0.6516,0.0310,98.29,36.63
1711780805732,-0.0208,0.6473,0.0361,98.29,36.63
1711780805736,-0.0201,0.6428,0.0393,98.29,36.63
1711780805740,-0.0194,0.6383,0.0398,98.29,36.63
1711780805744,-0.0187,0.6336,0.0374,98.29,36.63
1711780805748,-0.0180,0.6288,0.0327,98.29,36.63
1711780805752,-0.0173,0.6239,0.0273,98.29,36.63
1711780805756,-0.0165,0.6189,0.0226,98.29,36.63
1711780805760,-0.0158,0.6138,0.0202,98.29,36.63
1711780805764,-0.0150,0.6085,0.0207,98.29,36.63
1711780805768,-0.0142,0.6032,0.0239,98.29,36.63
1711780805772,-0.0134,0.5978,0.0290,98.29,36.63
1711780805776,-0.0126,0.5923,0.0344,98.29,36.63
1711780805780,-0.0117,0.5867,0.0384,98.29,36.63
1711780805784,-0.0109,0.5810,0.0400,98.29,36.63
1711780805788,-0.0101,0.5752,0.0386,98.29,36.63
1711780805792,-0.0092,0.5694,0.0346,98.29,36.63
1711780805796,-0.0083,0.5636,0.0292,98.29,36.63
1711780805800,-0.0075,0.5576,0.0241,98.29,36.63
1711780805804,-0.0066,0.5517,0.0207,98.29,36.63
1711780805808,-0.0057,0.5457,0.0201,98.29,36.63
1711780805812,-0.0048,0.5396,0.0225,98.28,36.63
1711780805816,-0.0039,0.5336,0.0270,98.28,36.63
1711780805820,-0.0030,0.5275,0.0325,98.28,36.63
1711780805824,-0.0021,0.5214,0.0372,98.28,36.63
1711780805828,-0.0012,0.5154,0.0398,98.28,36.63
1711780805832,-0.0003,0.5093,0.0394,98.28,36.63
1711780805836,0.0006,0.5033,0.0363,98.28,36.63
1711780805840,0.0015,0.4973,0.0313,98.28,36.63
1711780805844,0.0024,0.4913,0.0259,98.28,36.63
1711780805848,0.0033,0.4854,0.0217,98.28,36.63
1711780805852,0.0042,0.4795,0.0200,98.28,36.63
1711780805856,0.0051,0.4737,0.0213,98.28,36.63
1711780805860,0.0060,0.4679,0.0252,98.28,36.63
1711780805864,0.0069,0.4623,0.0305,98.28,36.63
1711780805868,0.0078,0.4567,0.0357,98.28,36.63
1711780805872,0.0086,0.4513,0.0392,98.28,36.63
1711780805876,0.0095,0.4459,0.0399,98.28,36.63
1711780805880,0.0103,0.4407,0.0377,98.28,36.63
1711780805884,0.0112,0.4356,0.0332,98.28,36.63
1711780805888,0.0120,0.4307,0.0278,98.28,36.63
1711780805892,0.0128,0.4258,0.0230,98.28,36.63
1711780805896,0.0137,0.4212,0.0203,98.28,36.63
1711780805900,0.0145,0.4167,0.0205,98.28,36.63
1711780805904,0.0152,0.4123,0.0235,98.28,36.63
1711780805908,0.0160,0.4082,0.0285,98.28,36.63
1711780805912,0.0168,0.4042,0.0339,98.28,36.63
1711780805916,0.0175,0.4004,0.0382,98.28,36.63
1711780805920,0.0182,0.3968,0.0400,98.28,36.63
1711780805924,0.0189,0.3934,0.0388,98.28,36.63
1711780805928,0.0196,0.3903,0.0350,98.28,36.63
1711780805932,0.0203,0.3873,0.0297,98.28,36.63
1711780805936,0.0210,0.3846,0.0245,98.27,36.63
1711780805940,0.0216,0.3820,0.0210,98.27,36.63
1711780805944,0.0222,0.3798,0.0201,98.27,36.63
1711780805948,0.0228,0.3777,0.0221,98.27,36.63
1711780805952,0.0234,0.3759,0.0266,98.27,36.63
1711780805956,0.0240,0.3743,0.0320,98.27,36.63
1711780805960,0.0245,0.3730,0.0368,98.27,36.63
1711780805964,0.0250,0.3719,0.0397,98.27,36.63
1711780805968,0.0255,0.3710,0.0396,98.27,36.63
1711780805972,0.0260,0.3704,0.0367,98.27,36.63
1711780805976,0.0264,0.3701,0.0318,98.27,36.63
1711780805980,0.0268,0.3700,0.0263,98.27,36.63
1711780805984,0.0272,0.3702,0.0220,98.27,36.63
1711780805988,0.0276,0.3706,0.0200,98.27,36.63
1711780805992,0.0279,0.3712,0.0211,98.27,36.63
1711780805996,0.0282,0.3721,0.0247,98.27,36.63
1711780806000,0.0285,0.3733,0.0300,98.27,36.63
1711780806004,0.0288,0.3747,0.0353,98.27,36.63
1711780806008,0.0290,0.3763,0.0389,98.27,36.63
1711780806012,0.0293,0.3782,0.0400,98.27,36.63
1711780806016,0.0294,0.3803,0.0380,98.27,36.63
1711780806020,0.0296,0.3827,0.0337,98.27,36.63
1711780806024,0.0297,0.3852,0.0282,98.27,36.63
1711780806028,0.0298,0.3880,0.0233,98.27,36.63
1711780806032,0.0299,0.3910,0.0204,98.27,36.63
1711780806036,0.0300,0.3942,0.0203,98.27,36.63
1711780806040,0.0300,0.3977,0.0232,98.27,36.63
1711780806044,0.0298,0.4013,0.0280,98.27,36.63
1711780806048,0.0295,0.4051,0.0334,98.27,36.63
1711780806052,0.0287,0.4091,0.0379,98.27,36.63
1711780806056,0.0270,0.4133,0.0399,98.26,36.63
1711780806060,0.0235,0.4177,0.0391,98.26,36.63
1711780806064,0.0172,0.4222,0.0355,98.26,36.63
1711780806068,0.0070,0.4268,0.0304,98.26,36.63
1711780806072,-0.0076,0.4317,0.0254,98.26,36.63
1711780806076,-0.0256,0.4366,0.0225,98.26,36.63
1711780806080,-0.0447,0.4417,0.0236,98.26,36.63
1711780806084,-0.0609,0.4469,0.0304,98.26,36.63
1711780806088,-0.0697,0.4523,0.0442,98.26,36.63
1711780806092,-0.0664,0.4577,0.0653,98.26,36.63
1711780806096,-0.0427,0.4632,0.0923,98.26,36.63
1711780806100,0.0190,0.4689,0.1207,98.26,36.63
1711780806104,0.1496,0.4746,0.1440,98.26,36.63
1711780806108,0.3758,0.4803,0.1552,98.26,36.63
1711780806112,0.6767,0.4862,0.1504,98.26,36.63
1711780806116,0.9526,0.4921,0.1310,98.26,36.63
1711780806120,1.0687,0.4980,0.1035,98.26,36.63
1711780806124,0.9612,0.5039,0.0759,98.26,36.63
1711780806128,0.6959,0.5099,0.0547,98.26,36.63
1711780806132,0.4091,0.5159,0.0424,98.26,36.63
1711780806136,0.2000,0.5219,0.0381,98.26,36.63
1711780806140,0.0874,0.5280,0.0384,98.26,36.63
1711780806144,0.0407,0.5340,0.0400,98.26,36.63
1711780806148,0.0254,0.5399,0.0404,98.26,36.63
1711780806152,0.0211,0.5459,0.0384,98.26,36.63
1711780806156,0.0197,0.5518,0.0342,98.26,36.63
1711780806160,0.0188,0.5577,0.0288,98.26,36.63
1711780806164,0.0181,0.5636,0.0237,98.26,36.63
1711780806168,0.0174,0.5693,0.0206,98.26,36.63
1711780806172,0.0166,0.5751,0.0202,98.25,36.63
1711780806176,0.0159,0.5807,0.0228,98.25,36.63
1711780806180,0.0151,0.5863,0.0275,98.25,36.63
1711780806184,0.0143,0.5918,0.0330,98.25,36.63
1711780806188,0.0135,0.5972,0.0375,98.25,36.63
1711780806192,0.0127,0.6026,0.0399,98.25,36.63
1711780806196,0.0119,0.6078,0.0393,98.25,36.63
1711780806200,0.0111,0.6130,0.0359,98.25,36.63
1711780806204,0.0102,0.6180,0.0308,98.25,36.63
1711780806208,0.0094,0.6229,0.0254,98.25,36.63
1711780806212,0.0085,0.6278,0.0214,98.25,36.63
1711780806216,0.0077,0.6325,0.0200,98.25,36.63
1711780806220,0.0070,0.6371,0.0216,98.25,36.63
1711780806224,0.0063,0.6416,0.0256,98.25,36.63
1711780806228,0.0057,0.6459,0.0310,98.25,36.63
1711780806232,0.0053,0.6501,0.0361,98.25,36.63
1711780806236,0.0052,0.6543,0.0393,98.25,36.63
1711780806240,0.0056,0.6582,0.0398,98.25,36.63
1711780806244,0.0065,0.6621,0.0374,98.25,36.63
1711780806248,0.0083,0.6658,0.0327,98.25,36.63
1711780806252,0.0111,0.6694,0.0273,98.25,36.63
1711780806256,0.0153,0.6729,0.0226,98.25,36.63
1711780806260,0.0211,0.6763,0.0202,98.25,36.63
1711780806264,0.0288,0.6795,0.0207,98.25,36.63
1711780806268,0.0386,0.6826,0.0239,98.25,36.63
1711780806272,0.0504,0.6856,0.0290,98.25,36.63
1711780806276,0.0642,0.6885,0.0344,98.25,36.63
1711780806280,0.0796,0.6912,0.0384,98.24,36.63
1711780806284,0.0961,0.6938,0.0400,98.24,36.63
1711780806288,0.1128,0.6963,0.0386,98.24,36.63
1711780806292,0.1288,0.6987,0.0346,98.24,36.63
1711780806296,0.1432,0.7010,0.0292,98.24,36.63
1711780806300,0.1548,0.7032,0.0241,98.24,36.63
1711780806304,0.1629,0.7052,0.0207,98.24,36.63
1711780806308,0.1667,0.7072,0.0201,98.24,36.63
1711780806312,0.1659,0.7090,0.0225,98.24,36.63
1711780806316,0.1605,0.7108,0.0270,98.24,36.63
1711780806320,0.1508,0.7125,0.0325,98.24,36.63
1711780806324,0.1375,0.7140,0.0372,98.24,36.63
1711780806328,0.1215,0.7155,0.0398,98.24,36.63
1711780806332,0.1039,0.7169,0.0395,98.24,36.63
1711780806336,0.0855,0.7182,0.0363,98.24,36.63
1711780806340,0.0675,0.7194,0.0314,98.24,36.63
1711780806344,0.0505,0.7205,0.0264,98.24,36.63
1711780806348,0.0352,0.7216,0.0229,98.24,36.63
1711780806352,0.0218,0.7226,0.0227,98.24,36.63
1711780806356,0.0105,0.7235,0.0269,98.24,36.63
1711780806360,0.0013,0.7243,0.0357,98.24,36.63
1711780806364,-0.0061,0.7251,0.0490,98.24,36.63
1711780806368,-0.0118,0.7258,0.0655,98.24,36.63
1711780806372,-0.0161,0.7265,0.0836,98.24,36.63
1711780806376,-0.0193,0.7271,0.1012,98.24,36.63
1711780806380,-0.0216,0.7276,0.1156,98.24,36.63
1711780806384,-0.0234,0.7281,0.1246,98.23,36.63
1711780806388,-0.0246,0.7285,0.1268,98.23,36.63
1711780806392,-0.0256,0.7289,0.1220,98.23,36.63
1711780806396,-0.0263,0.7292,0.1117,98.23,36.63
1711780806400,-0.0269,0.7295,0.0984,98.23,36.63
1711780806404,-0.0274,0.7297,0.0848,98.23,36.63
1711780806408,-0.0278,0.7298,0.0730,98.23,36.63
1711780806412,-0.0282,0.7300,0.0637,98.23,36.63
1711780806416,-0.0285,0.7300,0.0566,98.23,36.63
1711780806420,-0.0287,0.7300,0.0505,98.23,36.63
1711780806424,-0.0290,0.7300,0.0444,98.23,36.63
1711780806428,-0.0292,0.7299,0.0377,98.23,36.63
1711780806432,-0.0294,0.7298,0.0310,98.23,36.63
1711780806436,-0.0296,0.7296,0.0250,98.23,36.63
1711780806440,-0.0297,0.7293,0.0211,98.23,36.63
1711780806444,-0.0298,0.7290,0.0201,98.23,36.63
1711780806448,-0.0299,0.7287,0.0222,98.23,36.63
1711780806452,-0.0300,0.7283,0.0266,98.23,36.63
1711780806456,-0.0300,0.7278,0.0320,98.23,36.63
1711780806460,-0.0300,0.7272,0.0368,98.23,36.63
1711780806464,-0.0300,0.7266,0.0397,98.23,36.63
1711780806468,-0.0299,0.7260,0.0396,98.23,36.63
1711780806472,-0.0298,0.7252,0.0367,98.23,36.63
1711780806476,-0.0297,0.7244,0.0318,98.23,36.63
1711780806480,-0.0296,0.7235,0.0263,98.23,36.63
1711780806484,-0.0294,0.7226,0.0220,98.22,36.63
1711780806488,-0.0293,0.7215,0.0200,98.22,36.63
1711780806492,-0.0290,0.7204,0.0211,98.22,36.63
1711780806496,-0.0288,0.7192,0.0247,98.22,36.63
1711780806500,-0.0285,0.7179,0.0300,98.22,36.63
1711780806504,-0.0282,0.7165,0.0353,98.22,36.63
1711780806508,-0.0279,0.7150,0.0389,98.22,36.63
1711780806512,-0.0276,0.7134,0.0400,98.22,36.63
1711780806516,-0.0272,0.7117,0.0380,98.22,36.63
1711780806520,-0.0268,0.7099,0.0337,98.22,36.63
1711780806524,-0.0264,0.7080,0.0282,98.22,36.63
1711780806528,-0.0260,0.7060,0.0233,98.22,36.63
1711780806532,-0.0255,0.7039,0.0204,98.22,36.63
1711780806536,-0.0250,0.7017,0.0203,98.22,36.63
1711780806540,-0.0245,0.6993,0.0232,98.22,36.63
1711780806544,-0.0240,0.6969,0.0280,98.22,36.63
1711780806548,-0.0234,0.6943,0.0334,98.22,36.63
1711780806552,-0.0228,0.6916,0.0379,98.22,36.63
1711780806556,-0.0222,0.6887,0.0399,98.22,36.63
1711780806560,-0.0216,0.6857,0.0390,98.22,36.63
1711780806564,-0.0210,0.6827,0.0355,98.22,36.63
1711780806568,-0.0203,0.6794,0.0303,98.22,36.63
1711780806572,-0.0196,0.6761,0.0250,98.22,36.63
1711780806576,-0.0189,0.6726,0.0212,98.22,36.63
1711780806580,-0.0182,0.6690,0.0200,98.21,36.63
1711780806584,-0.0175,0.6652,0.0218,98.21,36.63
1711780806588,-0.0168,0.6614,0.0261,98.21,36.63
1711780806592,-0.0160,0.6574,0.0315,98.21,36.63
1711780806596,-0.0152,0.6532,0.0365,98.21,36.63
1711780806600,-0.0145,0.6490,0.0395,98.21,36.63
1711780806604,-0.0137,0.6446,0.0397,98.21,36.63
1711780806608,-0.0128,0.6401,0.0370,98.21,36.63
1711780806612,-0.0120,0.6354,0.0322,98.21,36.63
1711780806616,-0.0112,0.6307,0.0268,98.21,36.63
1711780806620,-0.0103,0.6258,0.0223,98.21,36.63
1711780806624,-0.0095,0.6209,0.0201,98.21,36.63
1711780806628,-0.0086,0.6158,0.0208,98.21,36.63
1711780806632,-0.0078,0.6106,0.0243,98.21,36.63
1711780806636,-0.0069,0.6053,0.0295,98.21,36.63
1711780806640,-0.0060,0.5999,0.0348,98.21,36.63
1711780806644,-0.0051,0.5944,0.0387,98.21,36.63
1711780806648,-0.0042,0.5889,0.0400,98.21,36.63
1711780806652,-0.0033,0.5832,0.0383,98.21,36.63
1711780806656,-0.0024,0.5775,0.0341,98.21,36.63
1711780806660,-0.0015,0.5717,0.0287,98.21,36.63
1711780806664,-0.0006,0.5659,0.0237,98.21,36.63
1711780806668,0.0003,0.5600,0.0206,98.21,36.63
1711780806672,0.0012,0.5540,0.0202,98.21,36.63
1711780806676,0.0021,0.5480,0.0228,98.20,36.63
1711780806680,0.0030,0.5420,0.0275,98.20,36.63
1711780806684,0.0039,0.5360,0.0330,98.20,36.63
1711780806688,0.0048,0.5299,0.0375,98.20,36.63
1711780806692,0.0057,0.5238,0.0399,98.20,36.63
1711780806696,0.0066,0.5177,0.0393,98.20,36.63
1711780806700,0.0075,0.5117,0.0359,98.20,36.63
1711780806704,0.0083,0.5056,0.0308,98.20,36.63
1711780806708,0.0092,0.4996,0.0254,98.20,36.63
1711780806712,0.0101,0.4936,0.0214,98.20,36.63
1711780806716,0.0109,0.4877,0.0200,98.20,36.63
1711780806720,0.0117,0.4818,0.0216,98.20,36.63
1711780806724,0.0126,0.4759,0.0256,98.20,36.63
1711780806728,0.0134,0.4702,0.0310,98.20,36.63
1711780806732,0.0142,0.4645,0.0361,98.20,36.63
1711780806736,0.0150,0.4589,0.0393,98.20,36.63
1711780806740,0.0158,0.4534,0.0398,98.20,36.63
1711780806744,0.0165,0.4480,0.0374,98.20,36.63
1711780806748,0.0173,0.4427,0.0327,98.20,36.63
1711780806752,0.0180,0.4376,0.0273,98.20,36.63
1711780806756,0.0187,0.4326,0.0226,98.20,36.63
1711780806760,0.0194,0.4277,0.0202,98.20,36.63
1711780806764,0.0201,0.4230,0.0207,98.20,36.63
1711780806768,0.0208,0.4184,0.0239,98.19,36.63
1711780806772,0.0214,0.4140,0.0290,98.19,36.63
1711780806776,0.0220,0.4098,0.0344,98.19,36.63
1711780806780,0.0226,0.4057,0.0384,98.19,36.63
1711780806784,0.0232,0.4019,0.0400,98.19,36.63
1711780806788,0.0238,0.3982,0.0386,98.19,36.63
1711780806792,0.0243,0.3947,0.0346,98.19,36.63
1711780806796,0.0248,0.3915,0.0292,98.19,36.63
1711780806800,0.0253,0.3884,0.0241,98.19,36.63
1711780806804,0.0258,0.3856,0.0207,98.19,36.63
1711780806808,0.0263,0.3830,0.0201,98.19,36.63
1711780806812,0.0267,0.3806,0.0225,98.19,36.63
1711780806816,0.0271,0.3785,0.0270,98.19,36.63
1711780806820,0.0275,0.3766,0.0325,98.19,36.63
1711780806824,0.0278,0.3749,0.0372,98.19,36.63
1711780806828,0.0281,0.3735,0.0398,98.19,36.63
1711780806832,0.0284,0.3723,0.0394,98.19,36.63
1711780806836,0.0287,0.3713,0.0363,98.19,36.63
1711780806840,0.0290,0.3706,0.0313,98.19,36.63
1711780806844,0.0292,0.3702,0.0259,98.19,36.63
1711780806848,0.0294,0.3700,0.0217,98.19,36.63
1711780806852,0.0296,0.3701,0.0200,98.19,36.63
1711780806856,0.0297,0.3704,0.0213,98.19,36.63
1711780806860,0.0298,0.3709,0.0252,98.18,36.63
1711780806864,0.0299,0.3718,0.0305,98.18,36.63
1711780806868,0.0300,0.3728,0.0357,98.18,36.63
1711780806872,0.0300,0.3741,0.0392,98.18,36.63
1711780806876,0.0300,0.3757,0.0399,98.18,36.63
1711780806880,0.0300,0.3774,0.0377,98.18,36.63
1711780806884,0.0299,0.3795,0.0332,98.18,36.63
1711780806888,0.0299,0.3817,0.0278,98.18,36.63
1711780806892,0.0298,0.3842,0.0230,98.18,36.63
1711780806896,0.0296,0.3869,0.0203,98.18,36.63
1711780806900,0.0295,0.3898,0.0205,98.18,36.63
1711780806904,0.0293,0.3930,0.0235,98.18,36.63
1711780806908,0.0291,0.3963,0.0285,98.18,36.63
1711780806912,0.0288,0.3999,0.0339,98.18,36.63
1711780806916,0.0286,0.4036,0.0382,98.18,36.63
1711780806920,0.0283,0.4075,0.0400,98.18,36.63
1711780806924,0.0280,0.4116,0.0388,98.18,36.63
1711780806928,0.0276,0.4159,0.0350,98.18,36.63
1711780806932,0.0273,0.4204,0.0297,98.18,36.63
1711780806936,0.0269,0.4250,0.0245,98.18,36.63
1711780806940,0.0265,0.4298,0.0210,98.18,36.63
1711780806944,0.0260,0.4347,0.0201,98.18,36.63
1711780806948,0.0256,0.4397,0.0221,98.17,36.63
1711780806952,0.0251,0.4449,0.0266,98.17,36.63
1711780806956,0.0246,0.4502,0.0320,98.17,36.63
1711780806960,0.0240,0.4556,0.0368,98.17,36.63
1711780806964,0.0235,0.4611,0.0397,98.17,36.63
1711780806968,0.0229,0.4667,0.0396,98.17,36.63
1711780806972,0.0223,0.4723,0.0367,98.17,36.63
1711780806976,0.0217,0.4781,0.0318,98.17,36.63
1711780806980,0.0211,0.4839,0.0263,98.17,36.63
1711780806984,0.0204,0.4898,0.0220,98.17,36.63
1711780806988,0.0198,0.4957,0.0200,98.17,36.63
1711780806992,0.0191,0.5016,0.0211,98.17,36.63
1711780806996,0.0184,0.5076,0.0247,98.17,36.63
1711780807000,0.0176,0.5136,0.0300,98.17,36.63
1711780807004,0.0169,0.5196,0.0353,98.17,36.63
1711780807008,0.0161,0.5256,0.0389,98.17,36.63
1711780807012,0.0154,0.5316,0.0400,98.17,36.63
1711780807016,0.0146,0.5376,0.0380,98.17,36.63
1711780807020,0.0138,0.5436,0.0337,98.17,36.63
1711780807024,0.0130,0.5495,0.0282,98.17,36.63
1711780807028,0.0122,0.5554,0.0233,98.17,36.63
1711780807032,0.0113,0.5613,0.0204,98.16,36.63
1711780807036,0.0105,0.5671,0.0203,98.16,36.63
1711780807040,0.0096,0.5728,0.0232,98.16,36.63
1711780807044,0.0086,0.5785,0.0280,98.16,36.63
1711780807048,0.0075,0.5841,0.0334,98.16,36.63
1711780807052,0.0059,0.5897,0.0379,98.16,36.63
1711780807056,0.0033,0.5951,0.0399,98.16,36.63
1711780807060,-0.0010,0.6005,0.0391,98.16,36.63
1711780807064,-0.0081,0.6058,0.0355,98.16,36.63
1711780807068,-0.0190,0.6110,0.0304,98.16,36.63
1711780807072,-0.0342,0.6160,0.0254,98.16,36.63
1711780807076,-0.0530,0.6210,0.0225,98.16,36.63
1711780807080,-0.0727,0.6259,0.0236,98.16,36.63
1711780807084,-0.0895,0.6306,0.0304,98.16,36.63
1711780807088,-0.0990,0.6353,0.0442,98.16,36.63
1711780807092,-0.0962,0.6398,0.0653,98.16,36.63
1711780807096,-0.0731,0.6442,0.0923,98.16,36.63
1711780807100,-0.0119,0.6485,0.1207,98.16,36.63
1711780807104,0.1182,0.6527,0.1440,98.16,36.63
1711780807108,0.3439,0.6567,0.1552,98.16,36.63
1711780807112,0.6444,0.6606,0.1504,98.16,36.63
1711780807116,0.9199,0.6644,0.1310,98.16,36.63
1711780807120,1.0356,0.6681,0.1035,98.15,36.63
1711780807124,0.9277,0.6716,0.0759,98.15,36.63
1711780807128,0.6622,0.6750,0.0547,98.15,36.63
1711780807132,0.3751,0.6783,0.0424,98.15,36.63
1711780807136,0.1657,0.6814,0.0381,98.15,36.63
1711780807140,0.0528,0.6845,0.0384,98.15,36.63
1711780807144,0.0060,0.6874,0.0400,98.15,36.63
1711780807148,-0.0095,0.6902,0.0404,98.15,36.63
1711780807152,-0.0140,0.6928,0.0384,98.15,36.63
1711780807156,-0.0155,0.6954,0.0342,98.15,36.63
1711780807160,-0.0164,0.6978,0.0288,98.15,36.63
1711780807164,-0.0171,0.7001,0.0237,98.15,36.63
1711780807168,-0.0179,0.7023,0.0206,98.15,36.63
1711780807172,-0.0186,0.7044,0.0202,98.15,36.63
1711780807176,-0.0193,0.7064,0.0228,98.15,36.63
1711780807180,-0.0200,0.7083,0.0275,98.15,36.63
1711780807184,-0.0206,0.7101,0.0330,98.15,36.63
1711780807188,-0.0213,0.7118,0.0375,98.15,36.63
1711780807192,-0.0219,0.7134,0.0399,98.15,36.63
1711780807196,-0.0225,0.7149,0.0393,98.15,36.63
1711780807200,-0.0231,0.7163,0.0359,98.15,36.63
1711780807204,-0.0237,0.7177,0.0308,98.14,36.63
1711780807208,-0.0242,0.7189,0.0254,98.14,36.64
1711780807212,-0.0247,0.7201,0.0214,98.14,36.64
1711780807216,-0.0251,0.7212,0.0200,98.14,36.64
1711780807220,-0.0255,0.7222,0.0216,98.14,36.64
1711780807224,-0.0257,0.7231,0.0256,98.14,36.64
1711780807228,-0.0259,0.7240,0.0310,98.14,36.64
1711780807232,-0.0258,0.7248,0.0361,98.14,36.64
1711780807236,-0.0253,0.7256,0.0393,98.14,36.64
1711780807240,-0.0245,0.7262,0.0398,98.14,36.64
1711780807244,-0.0229,0.7268,0.0374,98.14,36.64
1711780807248,-0.0206,0.7274,0.0327,98.14,36.64
1711780807252,-0.0171,0.7279,0.0273,98.14,36.64
1711780807256,-0.0123,0.7284,0.0226,98.14,36.64
1711780807260,-0.0058,0.7287,0.0202,98.14,36.64
1711780807264,0.0026,0.7291,0.0207,98.14,36.64
1711780807268,0.0131,0.7294,0.0239,98.14,36.64
1711780807272,0.0257,0.7296,0.0290,98.14,36.64
1711780807276,0.0403,0.7298,0.0344,98.14,36.64
1711780807280,0.0565,0.7299,0.0384,98.14,36.64
1711780807284,0.0737,0.7300,0.0400,98.13,36.64
1711780807288,0.0913,0.7300,0.0386,98.13,36.64
1711780807292,0.1082,0.7300,0.0346,98.13,36.64
1711780807296,0.1234,0.7300,0.0292,98.13,36.64
1711780807300,0.1359,0.7298,0.0241,98.13,36.64
1711780807304,0.1449,0.7297,0.0207,98.13,36.64
1711780807308,0.1496,0.7294,0.0201,98.13,36.64
1711780807312,0.1498,0.7292,0.0225,98.13,36.64
1711780807316,0.1453,0.7288,0.0270,98.13,36.64
1711780807320,0.1366,0.7284,0.0325,98.13,36.64
1711780807324,0.1243,0.7280,0.0372,98.13,36.64
1711780807328,0.1093,0.7275,0.0398,98.13,36.64
1711780807332,0.0926,0.7269,0.0395,98.13,36.64
1711780807336,0.0753,0.7262,0.0363,98.13,36.64
1711780807340,0.0583,0.7255,0.0314,98.13,36.64
1711780807344,0.0424,0.7247,0.0264,98.13,36.64
1711780807348,0.0280,0.7239,0.0229,98.13,36.64
1711780807352,0.0157,0.7230,0.0227,98.13,36.64
1711780807356,0.0055,0.7219,0.0269,98.13,36.64
1711780807360,-0.0027,0.7208,0.0357,98.13,36.64
1711780807364,-0.0090,0.7197,0.0490,98.13,36.64
1711780807368,-0.0136,0.7184,0.0655,98.12,36.64
1711780807372,-0.0169,0.7170,0.0836,98.12,36.64
1711780807376,-0.0190,0.7156,0.1012,98.12,36.64
1711780807380,-0.0203,0.7140,0.1156,98.12,36.64
1711780807384,-0.0210,0.7124,0.1246,98.12,36.64
1711780807388,-0.0212,0.7106,0.1268,98.12,36.64
1711780807392,-0.0211,0.7088,0.1220,98.12,36.64
1711780807396,-0.0208,0.7068,0.1117,98.12,36.64
1711780807400,-0.0203,0.7048,0.0984,98.12,36.64
1711780807404,-0.0197,0.7026,0.0848,98.12,36.64
1711780807408,-0.0191,0.7003,0.0730,98.12,36.64
1711780807412,-0.0184,0.6978,0.0637,98.12,36.64
1711780807416,-0.0177,0.6953,0.0566,98.12,36.64
1711780807420,-0.0170,0.6926,0.0505,98.12,36.64
1711780807424,-0.0163,0.6898,0.0444,98.12,36.64
1711780807428,-0.0155,0.6869,0.0377,98.12,36.64
1711780807432,-0.0147,0.6839,0.0310,98.12,36.64
1711780807436,-0.0139,0.6807,0.0250,98.12,36.64
1711780807440,-0.0131,0.6774,0.0211,98.12,36.64
1711780807444,-0.0123,0.6740,0.0201,98.12,36.64
1711780807448,-0.0115,0.6704,0.0222,98.11,36.64
1711780807452,-0.0106,0.6667,0.0266,98.11,36.64
1711780807456,-0.0098,0.6629,0.0320,98.11,36.64
1711780807460,-0.0089,0.6589,0.0368,98.11,36.64
1711780807464,-0.0080,0.6549,0.0397,98.11,36.64
1711780807468,-0.0072,0.6507,0.0396,98.11,36.64
1711780807472,-0.0063,0.6463,0.0367,98.11,36.64
1711780807476,-0.0054,0.6419,0.0318,98.11,36.64
1711780807480,-0.0045,0.6373,0.0263,98.11,36.64
1711780807484,-0.0036,0.6326,0.0220,98.11,36.64
1711780807488,-0.0027,0.6278,0.0200,98.11,36.64
1711780807492,-0.0018,0.6228,0.0211,98.11,36.64
1711780807496,-0.0009,0.6178,0.0247,98.11,36.64
1711780807500,0.0000,0.6126,0.0300,98.11,36.64
1711780807504,0.0009,0.6074,0.0353,98.11,36.64
1711780807508,0.0018,0.6020,0.0389,98.11,36.64
1711780807512,0.0027,0.5966,0.0400,98.11,36.64
1711780807516,0.0036,0.5911,0.0380,98.11,36.64
1711780807520,0.0045,0.5854,0.0337,98.11,36.64
1711780807524,0.0054,0.5797,0.0282,98.11,36.64
1711780807528,0.0063,0.5740,0.0233,98.10,36.64
1711780807532,0.0072,0.5682,0.0204,98.10,36.64
1711780807536,0.0080,0.5623,0.0203,98.10,36.64
1711780807540,0.0089,0.5563,0.0232,98.10,36.64
1711780807544,0.0098,0.5504,0.0280,98.10,36.64
1711780807548,0.0106,0.5444,0.0334,98.10,36.64
1711780807552,0.0115,0.5383,0.0379,98.10,36.64
1711780807556,0.0123,0.5323,0.0399,98.10,36.64
1711780807560,0.0131,0.5262,0.0390,98.10,36.64
1711780807564,0.0139,0.5201,0.0355,98.10,36.64
1711780807568,0.0147,0.5140,0.0303,98.10,36.64
1711780807572,0.0155,0.5080,0.0250,98.10,36.64
1711780807576,0.0163,0.5020,0.0212,98.10,36.64
1711780807580,0.0170,0.4959,0.0200,98.10,36.64
1711780807584,0.0178,0.4900,0.0218,98.10,36.64
1711780807588,0.0185,0.4841,0.0261,98.10,36.64
1711780807592,0.0192,0.4782,0.0315,98.10,36.64
1711780807596,0.0199,0.4724,0.0365,98.10,36.64
1711780807600,0.0205,0.4667,0.0395,98.10,36.64
1711780807604,0.0212,0.4611,0.0397,98.10,36.64
1711780807608,0.0218,0.4555,0.0370,98.09,36.64
1711780807612,0.0224,0.4501,0.0322,98.09,36.64
1711780807616,0.0230,0.4448,0.0268,98.09,36.64
1711780807620,0.0236,0.4396,0.0223,98.09,36.64
1711780807624,0.0241,0.4345,0.0201,98.09,36.64
1711780807628,0.0247,0.4296,0.0208,98.09,36.64
1711780807632,0.0252,0.4248,0.0243,98.09,36.64
1711780807636,0.0256,0.4202,0.0295,98.09,36.64
1711780807640,0.0261,0.4157,0.0348,98.09,36.64
1711780807644,0.0265,0.4114,0.0387,98.09,36.64
1711780807648,0.0269,0.4073,0.0400,98.09,36.64
1711780807652,0.0273,0.4034,0.0383,98.09,36.64
1711780807656,0.0277,0.3996,0.0341,98.09,36.64
1711780807660,0.0280,0.3961,0.0287,98.09,36.64
1711780807664,0.0283,0.3927,0.0237,98.09,36.64
1711780807668,0.0286,0.3896,0.0206,98.09,36.64
1711780807672,0.0289,0.3867,0.0202,98.09,36.64
1711780807676,0.0291,0.3840,0.0228,98.09,36.64
1711780807680,0.0293,0.3815,0.0275,98.09,36.64
1711780807684,0.0295,0.3793,0.0330,98.08,36.64
1711780807688,0.0296,0.3773,0.0375,98.08,36.64
1711780807692,0.0298,0.3755,0.0399,98.08,36.64
1711780807696,0.0299,0.3740,0.0393,98.08,36.64
1711780807700,0.0299,0.3727,0.0359,98.08,36.64
1711780807704,0.0300,0.3717,0.0308,98.08,36.64
1711780807708,0.0300,0.3709,0.0254,98.08,36.64
1711780807712,0.0300,0.3703,0.0214,98.08,36.64
1711780807716,0.0299,0.3701,0.0200,98.08,36.64
1711780807720,0.0299,0.3700,0.0216,98.08,36.64
1711780807724,0.0298,0.3702,0.0256,98.08,36.64
1711780807728,0.0297,0.3707,0.0310,98.08,36.64
1711780807732,0.0295,0.3714,0.0361,98.08,36.64
1711780807736,0.0293,0.3724,0.0393,98.08,36.64
1711780807740,0.0291,0.3736,0.0398,98.08,36.64
1711780807744,0.0289,0.3750,0.0374,98.08,36.64
1711780807748,0.0287,0.3767,0.0327,98.08,36.64
1711780807752,0.0284,0.3786,0.0273,98.08,36.64
1711780807756,0.0281,0.3808,0.0226,98.08,36.64
1711780807760,0.0278,0.3832,0.0202,98.08,36.64
1711780807764,0.0274,0.3858,0.0207,98.07,36.64
1711780807768,0.0270,0.3887,0.0239,98.07,36.64
1711780807772,0.0266,0.3917,0.0290,98.07,36.64
1711780807776,0.0262,0.3950,0.0344,98.07,36.64
1711780807780,0.0257,0.3984,0.0384,98.07,36.64
1711780807784,0.0252,0.4021,0.0400,98.07,36.64
1711780807788,0.0247,0.4060,0.0386,98.07,36.64
1711780807792,0.0242,0.4100,0.0346,98.07,36.64
1711780807796,0.0237,0.4142,0.0292,98.07,36.64
1711780807800,0.0231,0.4186,0.0241,98.07,36.64
1711780807804,0.0225,0.4232,0.0207,98.07,36.64
1711780807808,0.0219,0.4279,0.0201,98.07,36.64
1711780807812,0.0213,0.4327,0.0225,98.07,36.64
1711780807816,0.0206,0.4377,0.0270,98.07,36.64
1711780807820,0.0200,0.4429,0.0325,98.07,36.64
1711780807824,0.0193,0.4481,0.0372,98.07,36.64
1711780807828,0.0186,0.4535,0.0398,98.07,36.64
1711780807832,0.0179,0.4589,0.0394,98.07,36.64
1711780807836,0.0171,0.4645,0.0363,98.07,36.64
1711780807840,0.0164,0.4701,0.0313,98.06,36.64
1711780807844,0.0156,0.4758,0.0259,98.06,36.64
1711780807848,0.0148,0.4816,0.0217,98.06,36.64
1711780807852,0.0141,0.4875,0.0200,98.06,36.64
1711780807856,0.0132,0.4933,0.0213,98.06,36.64
1711780807860,0.0124,0.4993,0.0252,98.06,36.64
1711780807864,0.0116,0.5052,0.0305,98.06,36.64
1711780807868,0.0108,0.5112,0.0357,98.06,36.64
1711780807872,0.0099,0.5172,0.0392,98.06,36.64
1711780807876,0.0091,0.5232,0.0399,98.06,36.64
1711780807880,0.0082,0.5293,0.0377,98.06,36.64
1711780807884,0.0073,0.5353,0.0332,98.06,36.64
1711780807888,0.0064,0.5412,0.0278,98.06,36.64
1711780807892,0.0055,0.5472,0.0230,98.06,36.64
1711780807896,0.0047,0.5531,0.0203,98.06,36.64
1711780807900,0.0038,0.5590,0.0205,98.06,36.64
1711780807904,0.0029,0.5648,0.0235,98.06,36.64
1711780807908,0.0020,0.5706,0.0285,98.06,36.64
1711780807912,0.0011,0.5763,0.0339,98.06,36.64
1711780807916,0.0002,0.5819,0.0382,98.05,36.64
1711780807920,-0.0008,0.5875,0.0400,98.05,36.64
1711780807924,-0.0017,0.5930,0.0388,98.05,36.64
1711780807928,-0.0026,0.5984,0.0350,98.05,36.64
1711780807932,-0.0035,0.6037,0.0297,98.05,36.64
1711780807936,-0.0044,0.6090,0.0245,98.05,36.64
1711780807940,-0.0053,0.6141,0.0210,98.05,36.64
1711780807944,-0.0061,0.6191,0.0201,98.05,36.64
1711780807948,-0.0070,0.6240,0.0221,98.05,36.64
1711780807952,-0.0079,0.6288,0.0266,98.05,36.64
1711780807956,-0.0088,0.6335,0.0320,98.05,36.64
1711780807960,-0.0096,0.6381,0.0368,98.05,36.64
1711780807964,-0.0105,0.6425,0.0397,98.05,36.64
1711780807968,-0.0113,0.6468,0.0396,98.05,36.64
1711780807972,-0.0122,0.6510,0.0367,98.05,36.64
1711780807976,-0.0130,0.6551,0.0318,98.05,36.64
1711780807980,-0.0138,0.6591,0.0263,98.05,36.64
1711780807984,-0.0146,0.6629,0.0220,98.05,36.64
1711780807988,-0.0154,0.6666,0.0200,98.05,36.64
1711780807992,-0.0161,0.6702,0.0211,98.04,36.64
1711780807996,-0.0169,0.6737,0.0247,98.04,36.64
1711780808000,-0.0176,0.6770,0.0300,98.04,36.64
1711780808004,-0.0184,0.6802,0.0353,98.04,36.64
1711780808008,-0.0191,0.6833,0.0389,98.04,36.64
1711780808012,-0.0198,0.6862,0.0400,98.04,36.64
1711780808016,-0.0204,0.6891,0.0380,98.04,36.64
1711780808020,-0.0211,0.6918,0.0337,98.04,36.64
1711780808024,-0.0217,0.6944,0.0282,98.04,36.64
1711780808028,-0.0223,0.6969,0.0233,98.04,36.64
1711780808032,-0.0229,0.6992,0.0204,98.04,36.64
1711780808036,-0.0235,0.7015,0.0203,98.04,36.64
1711780808040,-0.0241,0.7036,0.0232,98.04,36.64
1711780808044,-0.0247,0.7057,0.0280,98.04,36.64
1711780808048,-0.0255,0.7076,0.0334,98.04,36.64
1711780808052,-0.0267,0.7094,0.0379,98.04,36.64
1711780808056,-0.0289,0.7112,0.0399,98.04,36.64
1711780808060,-0.0327,0.7128,0.0391,98.04,36.64
1711780808064,-0.0393,0.7143,0.0355,98.04,36.64
1711780808068,-0.0497,0.7158,0.0304,98.03,36.64
1711780808072,-0.0644,0.7172,0.0254,98.03,36.64
1711780808076,-0.0826,0.7184,0.0225,98.03,36.64
1711780808080,-0.1017,0.7196,0.0236,98.03,36.64
1711780808084,-0.1179,0.7208,0.0304,98.03,36.64
1711780808088,-0.1268,0.7218,0.0442,98.03,36.64
1711780808092,-0.1233,0.7228,0.0653,98.03,36.64
1711780808096,-0.0995,0.7237,0.0923,98.03,36.64
1711780808100,-0.0376,0.7245,0.1207,98.03,36.64
1711780808104,0.0932,0.7253,0.1440,98.03,36.64
1711780808108,0.3197,0.7260,0.1552,98.03,36.64
1711780808112,0.6209,0.7266,0.1504,98.03,36.64
1711780808116,0.8972,0.7272,0.1310,98.03,36.64
1711780808120,1.0138,0.7277,0.1035,98.03,36.64
1711780808124,0.9068,0.7282,0.0759,98.03,36.64
1711780808128,0.6421,0.7286,0.0547,98.03,36.64
1711780808132,0.3559,0.7290,0.0424,98.03,36.64
1711780808136,0.1474,0.7293,0.0381,98.03,36.64
1711780808140,0.0354,0.7295,0.0384,98.03,36.64
1711780808144,-0.0105,0.7297,0.0400,98.02,36.64
1711780808148,-0.0250,0.7299,0.0404,98.02,36.64
1711780808152,-0.0285,0.7300,0.0384,98.02,36.64
1711780808156,-0.0291,0.7300,0.0342,98.02,36.64
1711780808160,-0.0289,0.7300,0.0288,98.02,36.64
1711780808164,-0.0287,0.7300,0.0237,98.02,36.64
1711780808168,-0.0284,0.7299,0.0206,98.02,36.64
1711780808172,-0.0281,0.7297,0.0202,98.02,36.64
1711780808176,-0.0278,0.7295,0.0228,98.02,36.64
1711780808180,-0.0275,0.7293,0.0275,98.02,36.64
1711780808184,-0.0271,0.7290,0.0330,98.02,36.64
1711780808188,-0.0267,0.7286,0.0375,98.02,36.64
1711780808192,-0.0263,0.7282,0.0399,98.02,36.64
1711780808196,-0.0258,0.7277,0.0393,98.02,36.64
1711780808200,-0.0253,0.7271,0.0359,98.02,36.64
1711780808204,-0.0248,0.7265,0.0308,98.02,36.64
1711780808208,-0.0243,0.7258,0.0254,98.02,36.64
1711780808212,-0.0237,0.7251,0.0214,98.02,36.64
1711780808216,-0.0231,0.7242,0.0200,98.02,36.64
1711780808220,-0.0224,0.7233,0.0216,98.01,36.64
1711780808224,-0.0216,0.7223,0.0256,98.01,36.64
1711780808228,-0.0207,0.7213,0.0310,98.01,36.64
1711780808232,-0.0195,0.7201,0.0361,98.01,36.64
1711780808236,-0.0180,0.7189,0.0393,98.01,36.64
1711780808240,-0.0161,0.7176,0.0398,98.01,36.64
1711780808244,-0.0136,0.7162,0.0374,98.01,36.64
1711780808248,-0.0102,0.7147,0.0327,98.01,36.64
1711780808252,-0.0057,0.7131,0.0273,98.01,36.64
1711780808256,0.0001,0.7113,0.0226,98.01,36.64
1711780808260,0.0076,0.7095,0.0202,98.01,36.64
1711780808264,0.0170,0.7076,0.0207,98.01,36.64
1711780808268,0.0285,0.7056,0.0239,98.01,36.64
1711780808272,0.0420,0.7034,0.0290,98.01,36.64
1711780808276,0.0575,0.7012,0.0344,98.01,36.64
1711780808280,0.0746,0.6988,0.0384,98.01,36.64
1711780808284,0.0928,0.6963,0.0400,98.01,36.64
1711780808288,0.1112,0.6937,0.0386,98.01,36.64
1711780808292,0.1290,0.6909,0.0346,98.01,36.64
1711780808296,0.1451,0.6881,0.0292,98.00,36.64
1711780808300,0.1584,0.6851,0.0241,98.00,36.64
1711780808304,0.1682,0.6820,0.0207,98.00,36.64
1711780808308,0.1737,0.6787,0.0201,98.00,36.64
1711780808312,0.1746,0.6753,0.0225,98.00,36.64
1711780808316,0.1709,0.6718,0.0270,98.00,36.64
1711780808320,0.1629,0.6682,0.0325,98.00,36.64
1711780808324,0.1513,0.6644,0.0372,98.00,36.64
1711780808328,0.1370,0.6605,0.0398,98.00,36.64
1711780808332,0.1209,0.6565,0.0395,98.00,36.64
1711780808336,0.1043,0.6523,0.0363,98.00,36.64
1711780808340,0.0878,0.6480,0.0314,98.00,36.64
1711780808344,0.0725,0.6436,0.0264,98.00,36.64
1711780808348,0.0587,0.6391,0.0229,98.00,36.64
1711780808352,0.0469,0.6344,0.0227,98.00,36.64
1711780808356,0.0371,0.6297,0.0269,98.00,36.64
1711780808360,0.0294,0.6248,0.0357,98.00,36.64
1711780808364,0.0235,0.6198,0.0490,98.00,36.64
1711780808368,0.0193,0.6147,0.0655,98.00,36.64
1711780808372,0.0164,0.6094,0.0836,97.99,36.64
1711780808376,0.0146,0.6041,0.1012,97.99,36.64
1711780808380,0.0136,0.5987,0.1156,97.99,36.64
1711780808384,0.0132,0.5932,0.1246,97.99,36.64
1711780808388,0.0133,0.5876,0.1268,97.99,36.64
1711780808392,0.0136,0.5820,0.1220,97.99,36.64
1711780808396,0.0141,0.5762,0.1117,97.99,36.64
1711780808400,0.0147,0.5704,0.0984,97.99,36.64
1711780808404,0.0154,0.5646,0.0848,97.99,36.64
1711780808408,0.0161,0.5587,0.0730,97.99,36.64
1711780808412,0.0168,0.5527,0.0637,97.99,36.64
1711780808416,0.0175,0.5467,0.0566,97.99,36.64
1711780808420,0.0182,0.5407,0.0505,97.99,36.64
1711780808424,0.0190,0.5346,0.0444,97.99,36.64
1711780808428,0.0196,0.5286,0.0377,97.99,36.64
1711780808432,0.0203,0.5225,0.0310,97.99,36.64
1711780808436,0.0210,0.5164,0.0250,97.99,36.64
1711780808440,0.0216,0.5104,0.0211,97.99,36.64
1711780808444,0.0222,0.5043,0.0201,97.99,36.64
1711780808448,0.0228,0.4983,0.0222,97.98,36.64
1711780808452,0.0234,0.4923,0.0266,97.98,36.64
1711780808456,0.0240,0.4864,0.0320,97.98,36.64
1711780808460,0.0245,0.4805,0.0368,97.98,36.64
1711780808464,0.0250,0.4747,0.0397,97.98,36.64
1711780808468,0.0255,0.4689,0.0396,97.98,36.64
1711780808472,0.0260,0.4633,0.0367,97.98,36.64
1711780808476,0.0264,0.4577,0.0318,97.98,36.64
1711780808480,0.0268,0.4522,0.0263,97.98,36.64
1711780808484,0.0272,0.4469,0.0220,97.98,36.64
1711780808488,0.0276,0.4416,0.0200,97.98,36.64
1711780808492,0.0279,0.4365,0.0211,97.98,36.64
1711780808496,0.0282,0.4315,0.0247,97.98,36.64
1711780808500,0.0285,0.4267,0.0300,97.98,36.64
1711780808504,0.0288,0.4220,0.0353,97.98,36.64
1711780808508,0.0290,0.4174,0.0389,97.98,36.64
1711780808512,0.0293,0.4131,0.0400,97.98,36.64
1711780808516,0.0294,0.4089,0.0380,97.98,36.64
1711780808520,0.0296,0.4049,0.0337,97.98,36.64
1711780808524,0.0297,0.4011,0.0282,97.97,36.64
1711780808528,0.0298,0.3974,0.0233,97.97,36.64
1711780808532,0.0299,0.3940,0.0204,97.97,36.64
1711780808536,0.0300,0.3908,0.0203,97.97,36.64
1711780808540,0.0300,0.3878,0.0232,97.97,36.64
1711780808544,0.0300,0.3850,0.0280,97.97,36.64
1711780808548,0.0300,0.3825,0.0334,97.97,36.64
1711780808552,0.0299,0.3801,0.0379,97.97,36.64
1711780808556,0.0298,0.3780,0.0399,97.97,36.64
1711780808560,0.0297,0.3762,0.0390,97.97,36.64
1711780808564,0.0296,0.3746,0.0355,97.97,36.64
1711780808568,0.0294,0.3732,0.0303,97.97,36.64
1711780808572,0.0292,0.3721,0.0250,97.97,36.64
1711780808576,0.0290,0.3712,0.0212,97.97,36.64
1711780808580,0.0288,0.3705,0.0200,97.97,36.64
1711780808584,0.0285,0.3701,0.0218,97.97,36.64
1711780808588,0.0282,0.3700,0.0261,97.97,36.64
1711780808592,0.0279,0.3701,0.0315,97.97,36.64
1711780808596,0.0275,0.3705,0.0365,97.97,36.64
1711780808600,0.0271,0.3711,0.0395,97.96,36.64
1711780808604,0.0267,0.3720,0.0397,97.96,36.64
1711780808608,0.0263,0.3731,0.0370,97.96,36.64
1711780808612,0.0259,0.3744,0.0322,97.96,36.64
1711780808616,0.0254,0.3760,0.0268,97.96,36.64
1711780808620,0.0249,0.3779,0.0223,97.96,36.64
1711780808624,0.0244,0.3799,0.0201,97.96,36.64
1711780808628,0.0239,0.3822,0.0208,97.96,36.64
1711780808632,0.0233,0.3848,0.0243,97.96,36.64
1711780808636,0.0227,0.3875,0.0295,97.96,36.64
1711780808640,0.0221,0.3905,0.0348,97.96,36.64
1711780808644,0.0215,0.3937,0.0387,97.96,36.64
1711780808648,0.0209,0.3971,0.0400,97.96,36.64
1711780808652,0.0202,0.4006,0.0383,97.96,36.64
1711780808656,0.0195,0.4044,0.0341,97.96,36.64
1711780808660,0.0188,0.4084,0.0287,97.96,36.64
1711780808664,0.0181,0.4126,0.0237,97.96,36.64
1711780808668,0.0174,0.4169,0.0206,97.96,36.64
1711780808672,0.0166,0.4214,0.0202,97.96,36.64
1711780808676,0.0159,0.4260,0.0228,97.95,36.64
1711780808680,0.0151,0.4308,0.0275,97.95,36.64
1711780808684,0.0143,0.4358,0.0330,97.95,36.64
1711780808688,0.0135,0.4408,0.0375,97.95,36.64
1711780808692,0.0127,0.4460,0.0399,97.95,36.64
1711780808696,0.0119,0.4513,0.0393,97.95,36.64
1711780808700,0.0110,0.4568,0.0359,97.95,36.64
1711780808704,0.0102,0.4623,0.0308,97.95,36.64
1711780808708,0.0093,0.4679,0.0254,97.95,36.64
1711780808712,0.0085,0.4736,0.0214,97.95,36.64
1711780808716,0.0076,0.4793,0.0200,97.95,36.64
1711780808720,0.0067,0.4852,0.0216,97.95,36.64
1711780808724,0.0058,0.4910,0.0256,97.95,36.64
1711780808728,0.0050,0.4970,0.0310,97.95,36.64
1711780808732,0.0041,0.5029,0.0361,97.95,36.64
1711780808736,0.0032,0.5089,0.0393,97.95,36.64
1711780808740,0.0023,0.5149,0.0398,97.95,36.64
1711780808744,0.0014,0.5209,0.0374,97.95,36.64
1711780808748,0.0005,0.5269,0.0327,97.95,36.64
1711780808752,-0.0005,0.5329,0.0273,97.94,36.64
1711780808756,-0.0014,0.5389,0.0226,97.94,36.64
1711780808760,-0.0023,0.5449,0.0202,97.94,36.64
1711780808764,-0.0032,0.5508,0.0207,97.94,36.64
1711780808768,-0.0041,0.5567,0.0239,97.94,36.64
1711780808772,-0.0050,0.5625,0.0290,97.94,36.64
1711780808776,-0.0058,0.5683,0.0344,97.94,36.64
1711780808780,-0.0067,0.5741,0.0384,97.94,36.64
1711780808784,-0.0076,0.5797,0.0400,97.94,36.64
1711780808788,-0.0085,0.5853,0.0386,97.94,36.64
1711780808792,-0.0093,0.5909,0.0346,97.94,36.64
1711780808796,-0.0102,0.5963,0.0292,97.94,36.64
1711780808800,-0.0110,0.6017,0.0241,97.94,36.64
1711780808804,-0.0119,0.6069,0.0207,97.94,36.64
1711780808808,-0.0127,0.6121,0.0201,97.94,36.64
1711780808812,-0.0135,0.6171,0.0225,97.94,36.64
1711780808816,-0.0143,0.6221,0.0270,97.94,36.64
1711780808820,-0.0151,0.6269,0.0325,97.94,36.64
1711780808824,-0.0159,0.6317,0.0372,97.94,36.64
1711780808828,-0.0166,0.6363,0.0398,97.94,36.64
1711780808832,-0.0174,0.6408,0.0394,97.93,36.64
1711780808836,-0.0181,0.6452,0.0363,97.93,36.64
1711780808840,-0.0188,0.6494,0.0313,97.93,36.64
1711780808844,-0.0195,0.6536,0.0259,97.93,36.64
1711780808848,-0.0202,0.6576,0.0217,97.93,36.64
1711780808852,-0.0209,0.6614,0.0200,97.93,36.64
1711780808856,-0.0215,0.6652,0.0213,97.93,36.64
1711780808860,-0.0221,0.6688,0.0252,97.93,36.64
1711780808864,-0.0227,0.6723,0.0305,97.93,36.64
1711780808868,-0.0233,0.6757,0.0357,97.93,36.64
1711780808872,-0.0239,0.6790,0.0392,97.93,36.64
1711780808876,-0.0244,0.6821,0.0399,97.93,36.64
1711780808880,-0.0249,0.6851,0.0377,97.93,36.64
1711780808884,-0.0254,0.6880,0.0332,97.93,36.64
1711780808888,-0.0259,0.6907,0.0278,97.93,36.64
1711780808892,-0.0263,0.6934,0.0230,97.93,36.64
1711780808896,-0.0267,0.6959,0.0203,97.93,36.64
1711780808900,-0.0271,0.6983,0.0205,97.93,36.64
1711780808904,-0.0275,0.7006,0.0235,97.93,36.64
1711780808908,-0.0279,0.7028,0.0285,97.92,36.64
1711780808912,-0.0282,0.7049,0.0339,97.92,36.64
1711780808916,-0.0285,0.7069,0.0382,97.92,36.64
1711780808920,-0.0288,0.7087,0.0400,97.92,36.64
1711780808924,-0.0290,0.7105,0.0388,97.92,36.64
1711780808928,-0.0292,0.7122,0.0350,97.92,36.64
1711780808932,-0.0294,0.7137,0.0297,97.92,36.64
1711780808936,-0.0296,0.7152,0.0245,97.92,36.64
1711780808940,-0.0297,0.7166,0.0210,97.92,36.64
1711780808944,-0.0298,0.7179,0.0201,97.92,36.64
1711780808948,-0.0299,0.7192,0.0221,97.92,36.64
1711780808952,-0.0300,0.7203,0.0266,97.92,36.64
1711780808956,-0.0300,0.7214,0.0320,97.92,36.64
1711780808960,-0.0300,0.7224,0.0368,97.92,36.64
1711780808964,-0.0300,0.7233,0.0397,97.92,36.64
1711780808968,-0.0299,0.7242,0.0396,97.92,36.64
1711780808972,-0.0298,0.7250,0.0367,97.92,36.64
1711780808976,-0.0297,0.7257,0.0318,97.92,36.64
1711780808980,-0.0296,0.7264,0.0263,97.92,36.64
1711780808984,-0.0294,0.7270,0.0220,97.92,36.64
1711780808988,-0.0293,0.7275,0.0200,97.91,36.64
1711780808992,-0.0290,0.7280,0.0211,97.91,36.64
1711780808996,-0.0288,0.7284,0.0247,97.91,36.64
1711780809000,-0.0285,0.7288,0.0300,97.91,36.64
1711780809004,-0.0282,0.7291,0.0353,97.91,36.64
1711780809008,-0.0279,0.7294,0.0389,97.91,36.64
1711780809012,-0.0276,0.7296,0.0400,97.91,36.64
1711780809016,-0.0272,0.7298,0.0380,97.91,36.64
1711780809020,-0.0268,0.7299,0.0337,97.91,36.64
1711780809024,-0.0264,0.7300,0.0282,97.91,36.64
1711780809028,-0.0260,0.7300,0.0233,97.91,36.64
1711780809032,-0.0255,0.7300,0.0204,97.91,36.64
1711780809036,-0.0250,0.7299,0.0203,97.91,36.64
1711780809040,-0.0245,0.7298,0.0232,97.91,36.64
1711780809044,-0.0241,0.7296,0.0280,97.91,36.64
1711780809048,-0.0238,0.7294,0.0334,97.91,36.64
1711780809052,-0.0240,0.7291,0.0379,97.91,36.64
1711780809056,-0.0250,0.7287,0.0399,97.91,36.64
1711780809060,-0.0278,0.7283,0.0391,97.91,36.64
1711780809064,-0.0334,0.7279,0.0355,97.90,36.64
1711780809068,-0.0428,0.7273,0.0304,97.90,36.64
1711780809072,-0.0564,0.7267,0.0254,97.90,36.64
1711780809076,-0.0736,0.7261,0.0225,97.90,36.64
1711780809080,-0.0917,0.7254,0.0236,97.90,36.64
1711780809084,-0.1069,0.7246,0.0304,97.90,36.64
1711780809088,-0.1147,0.7237,0.0442,97.90,36.64
1711780809092,-0.1102,0.7227,0.0653,97.90,36.64
1711780809096,-0.0855,0.7217,0.0923,97.90,36.64
1711780809100,-0.0226,0.7206,0.1207,97.90,36.64
1711780809104,0.1092,0.7194,0.1440,97.90,36.64
1711780809108,0.3366,0.7181,0.1552,97.90,36.64
1711780809112,0.6388,0.7167,0.1504,97.90,36.64
1711780809116,0.9160,0.7153,0.1310,97.90,36.64
1711780809120,1.0334,0.7137,0.1035,97.90,36.64
1711780809124,0.9273,0.7120,0.0759,97.90,36.64
1711780809128,0.6635,0.7103,0.0547,97.90,36.64
1711780809132,0.3781,0.7084,0.0424,97.90,36.64
1711780809136,0.1704,0.7064,0.0381,97.90,36.64
1711780809140,0.0592,0.7043,0.0384,97.90,36.64
1711780809144,0.0141,0.7021,0.0400,97.89,36.64
1711780809148,0.0003,0.6997,0.0404,97.89,36.64
1711780809152,-0.0025,0.6973,0.0384,97.89,36.64
1711780809156,-0.0023,0.6947,0.0342,97.89,36.64
1711780809160,-0.0015,0.6920,0.0288,97.89,36.64
1711780809164,-0.0006,0.6892,0.0237,97.89,36.64
1711780809168,0.0003,0.6863,0.0206,97.89,36.64
1711780809172,0.0012,0.6832,0.0202,97.89,36.64
1711780809176,0.0021,0.6800,0.0228,97.89,36.64
1711780809180,0.0030,0.6767,0.0275,97.89,36.64
1711780809184,0.0039,0.6732,0.0330,97.89,36.64
1711780809188,0.0048,0.6696,0.0375,97.89,36.64
1711780809192,0.0057,0.6659,0.0399,97.89,36.64
1711780809196,0.0066,0.6620,0.0393,97.89,36.64
1711780809200,0.0075,0.6581,0.0359,97.89,36.64
1711780809204,0.0084,0.6540,0.0308,97.89,36.64
1711780809208,0.0092,0.6497,0.0254,97.89,36.64
1711780809212,0.0101,0.6454,0.0214,97.89,36.64
1711780809216,0.0110,0.6409,0.0200,97.89,36.64
1711780809220,0.0120,0.6363,0.0216,97.89,36.64
1711780809224,0.0130,0.6315,0.0256,97.88,36.64
1711780809228,0.0141,0.6267,0.0310,97.88,36.64
1711780809232,0.0154,0.6217,0.0361,97.88,36.64
1711780809236,0.0170,0.6167,0.0393,97.88,36.64
1711780809240,0.0191,0.6115,0.0398,97.88,36.64
1711780809244,0.0217,0.6062,0.0374,97.88,36.64
1711780809248,0.0251,0.6008,0.0327,97.88,36.64
1711780809252,0.0295,0.5954,0.0273,97.88,36.64
1711780809256,0.0354,0.5898,0.0226,97.88,36.64
1711780809260,0.0428,0.5842,0.0202,97.88,36.64
1711780809264,0.0521,0.5785,0.0207,97.88,36.64
1711780809268,0.0634,0.5727,0.0239,97.88,36.64
1711780809272,0.0768,0.5669,0.0290,97.88,36.64
1711780809276,0.0921,0.5610,0.0344,97.88,36.64
1711780809280,0.1090,0.5551,0.0384,97.88,36.64
1711780809284,0.1269,0.5491,0.0400,97.88,36.64
1711780809288,0.1450,0.5430,0.0386,97.88,36.64
1711780809292,0.1625,0.5370,0.0346,97.88,36.64
1711780809296,0.1782,0.5309,0.0292,97.88,36.64
1711780809300,0.1912,0.5249,0.0241,97.88,36.64
1711780809304,0.2006,0.5188,0.0207,97.87,36.64
1711780809308,0.2057,0.5127,0.0201,97.87,36.64
1711780809312,0.2061,0.5067,0.0225,97.87,36.64
1711780809316,0.2019,0.5006,0.0270,97.87,36.64
1711780809320,0.1933,0.4946,0.0325,97.87,36.64
1711780809324,0.1812,0.4887,0.0372,97.87,36.64
1711780809328,0.1663,0.4828,0.0398,97.87,36.64
1711780809332,0.1497,0.4769,0.0395,97.87,36.64
1711780809336,0.1324,0.4712,0.0363,97.87,36.64
1711780809340,0.1153,0.4655,0.0314,97.87,36.64
1711780809344,0.0992,0.4599,0.0264,97.87,36.64
1711780809348,0.0848,0.4544,0.0229,97.87,36.64
1711780809352,0.0722,0.4489,0.0227,97.87,36.64
1711780809356,0.0617,0.4437,0.0269,97.87,36.64
1711780809360,0.0532,0.4385,0.0357,97.87,36.64
1711780809364,0.0465,0.4334,0.0490,97.87,36.64
1711780809368,0.0415,0.4285,0.0655,97.87,36.64
1711780809372,0.0378,0.4238,0.0836,97.87,36.64
1711780809376,0.0351,0.4192,0.1012,97.87,36.64
1711780809380,0.0333,0.4148,0.1156,97.87,36.64
1711780809384,0.0320,0.4105,0.1246,97.86,36.64
1711780809388,0.0311,0.4064,0.1268,97.86,36.64
1711780809392,0.0305,0.4025,0.1220,97.86,36.64
1711780809396,0.0301,0.3988,0.1117,97.86,36.64
1711780809400,0.0297,0.3953,0.0984,97.86,36.64
1711780809404,0.0294,0.3920,0.0848,97.86,36.64
1711780809408,0.0291,0.3889,0.0730,97.86,36.64
1711780809412,0.0289,0.3861,0.0637,97.86,36.64
1711780809416,0.0286,0.3834,0.0566,97.86,36.64
1711780809420,0.0283,0.3810,0.0505,97.86,36.64
1711780809424,0.0280,0.3788,0.0444,97.86,36.64
1711780809428,0.0276,0.3769,0.0377,97.86,36.64
1711780809432,0.0273,0.3752,0.0310,97.86,36.64
1711780809436,0.0269,0.3737,0.0250,97.86,36.64
1711780809440,0.0265,0.3725,0.0211,97.86,36.64
1711780809444,0.0260,0.3715,0.0201,97.86,36.64
1711780809448,0.0256,0.3707,0.0222,97.86,36.64
1711780809452,0.0251,0.3703,0.0266,97.86,36.64
1711780809456,0.0246,0.3700,0.0320,97.86,36.64
1711780809460,0.0240,0.3700,0.0368,97.86,36.64
1711780809464,0.0235,0.3703,0.0397,97.86,36.64
1711780809468,0.0229,0.3708,0.0396,97.85,36.64
1711780809472,0.0223,0.3716,0.0367,97.85,36.64
1711780809476,0.0217,0.3726,0.0318,97.85,36.64
1711780809480,0.0211,0.3739,0.0263,97.85,36.64
1711780809484,0.0204,0.3754,0.0220,97.85,36.64
1711780809488,0.0198,0.3771,0.0200,97.85,36.64
1711780809492,0.0191,0.3791,0.0211,97.85,36.64
1711780809496,0.0184,0.3813,0.0247,97.85,36.64
1711780809500,0.0176,0.3837,0.0300,97.85,36.64
1711780809504,0.0169,0.3864,0.0353,97.85,36.64
1711780809508,0.0161,0.3893,0.0389,97.85,36.64
1711780809512,0.0154,0.3924,0.0400,97.85,36.65
1711780809516,0.0146,0.3957,0.0380,97.85,36.65
1711780809520,0.0138,0.3992,0.0337,97.85,36.65
1711780809524,0.0130,0.4029,0.0282,97.85,36.65
1711780809528,0.0122,0.4068,0.0233,97.85,36.65
1711780809532,0.0113,0.4109,0.0204,97.85,36.65
1711780809536,0.0105,0.4152,0.0203,97.85,36.65
1711780809540,0.0096,0.4196,0.0232,97.85,36.65
1711780809544,0.0088,0.4242,0.0280,97.85,36.65
1711780809548,0.0079,0.4289,0.0334,97.85,36.65
1711780809552,0.0070,0.4338,0.0379,97.84,36.65
1711780809556,0.0061,0.4388,0.0399,97.84,36.65
1711780809560,0.0053,0.4440,0.0390,97.84,36.65
1711780809564,0.0044,0.4493,0.0355,97.84,36.65
1711780809568,0.0035,0.4546,0.0303,97.84,36.65
1711780809572,0.0026,0.4601,0.0250,97.84,36.65
1711780809576,0.0017,0.4657,0.0212,97.84,36.65
1711780809580,0.0008,0.4713,0.0200,97.84,36.65
1711780809584,-0.0002,0.4771,0.0218,97.84,36.65
1711780809588,-0.0011,0.4829,0.0261,97.84,36.65
1711780809592,-0.0020,0.4887,0.0315,97.84,36.65
1711780809596,-0.0029,0.4946,0.0365,97.84,36.65
1711780809600,-0.0038,0.5006,0.0395,97.84,36.65
1711780809604,-0.0047,0.5065,0.0397,97.84,36.65
1711780809608,-0.0055,0.5125,0.0370,97.84,36.65
1711780809612,-0.0064,0.5185,0.0322,97.84,36.65
1711780809616,-0.0073,0.5246,0.0268,97.84,36.65
1711780809620,-0.0082,0.5306,0.0223,97.84,36.65
1711780809624,-0.0091,0.5366,0.0201,97.84,36.65
1711780809628,-0.0099,0.5425,0.0208,97.84,36.65
1711780809632,-0.0108,0.5485,0.0243,97.84,36.65
1711780809636,-0.0116,0.5544,0.0295,97.83,36.65
1711780809640,-0.0124,0.5603,0.0348,97.83,36.65
1711780809644,-0.0132,0.5661,0.0387,97.83,36.65
1711780809648,-0.0141,0.5718,0.0400,97.83,36.65
1711780809652,-0.0148,0.5775,0.0383,97.83,36.65
1711780809656,-0.0156,0.5832,0.0341,97.83,36.65
1711780809660,-0.0164,0.5887,0.0287,97.83,36.65
1711780809664,-0.0171,0.5942,0.0237,97.83,36.65
1711780809668,-0.0179,0.5996,0.0206,97.83,36.65
1711780809672,-0.0186,0.6049,0.0202,97.83,36.65
1711780809676,-0.0193,0.6101,0.0228,97.83,36.65
1711780809680,-0.0200,0.6152,0.0275,97.83,36.65
1711780809684,-0.0206,0.6202,0.0330,97.83,36.65
1711780809688,-0.0213,0.6251,0.0375,97.83,36.65
1711780809692,-0.0219,0.6298,0.0399,97.83,36.65
1711780809696,-0.0225,0.6345,0.0393,97.83,36.65
1711780809700,-0.0231,0.6390,0.0359,97.83,36.65
1711780809704,-0.0237,0.6435,0.0308,97.83,36.65
1711780809708,-0.0242,0.6478,0.0254,97.83,36.65
1711780809712,-0.0247,0.6519,0.0214,97.83,36.65
1711780809716,-0.0252,0.6560,0.0200,97.83,36.65
1711780809720,-0.0257,0.6599,0.0216,97.83,36.65
1711780809724,-0.0262,0.6637,0.0256,97.82,36.65
1711780809728,-0.0266,0.6674,0.0310,97.82,36.65
1711780809732,-0.0270,0.6710,0.0361,97.82,36.65
1711780809736,-0.0274,0.6744,0.0393,97.82,36.65
1711780809740,-0.0278,0.6777,0.0398,97.82,36.65
1711780809744,-0.0281,0.6809,0.0374,97.82,36.65
1711780809748,-0.0284,0.6839,0.0327,97.82,36.65
1711780809752,-0.0287,0.6869,0.0273,97.82,36.65
1711780809756,-0.0289,0.6897,0.0226,97.82,36.65
1711780809760,-0.0291,0.6924,0.0202,97.82,36.65
1711780809764,-0.0293,0.6949,0.0207,97.82,36.65
1711780809768,-0.0295,0.6974,0.0239,97.82,36.65
1711780809772,-0.0297,0.6997,0.0290,97.82,36.65
1711780809776,-0.0298,0.7020,0.0344,97.82,36.65
1711780809780,-0.0299,0.7041,0.0384,97.82,36.65
1711780809784,-0.0299,0.7061,0.0400,97.82,36.65
1711780809788,-0.0300,0.7080,0.0386,97.82,36.65
1711780809792,-0.0300,0.7098,0.0346,97.82,36.65
1711780809796,-0.0300,0.7115,0.0292,97.82,36.65
1711780809800,-0.0299,0.7131,0.0241,97.82,36.65
1711780809804,-0.0299,0.7147,0.0207,97.82,36.65
1711780809808,-0.0298,0.7161,0.0201,97.82,36.65
1711780809812,-0.0296,0.7174,0.0225,97.81,36.65
1711780809816,-0.0295,0.7187,0.0270,97.81,36.65
1711780809820,-0.0293,0.7199,0.0325,97.81,36.65
1711780809824,-0.0291,0.7210,0.0372,97.81,36.65
1711780809828,-0.0289,0.7220,0.0398,97.81,36.65
1711780809832,-0.0286,0.7230,0.0394,97.81,36.65
1711780809836,-0.0283,0.7239,0.0363,97.81,36.65
1711780809840,-0.0280,0.7247,0.0313,97.81,36.65
1711780809844,-0.0277,0.7254,0.0259,97.81,36.65
1711780809848,-0.0273,0.7261,0.0217,97.81,36.65
1711780809852,-0.0269,0.7267,0.0200,97.81,36.65
1711780809856,-0.0265,0.7273,0.0213,97.81,36.65
1711780809860,-0.0261,0.7278,0.0252,97.81,36.65
1711780809864,-0.0256,0.7283,0.0305,97.81,36.65
1711780809868,-0.0252,0.7287,0.0357,97.81,36.65
1711780809872,-0.0247,0.7290,0.0392,97.81,36.65
1711780809876,-0.0241,0.7293,0.0399,97.81,36.65
1711780809880,-0.0236,0.7296,0.0377,97.81,36.65
1711780809884,-0.0230,0.7298,0.0332,97.81,36.65
1711780809888,-0.0224,0.7299,0.0278,97.81,36.65
1711780809892,-0.0218,0.7300,0.0230,97.81,36.65
1711780809896,-0.0212,0.7300,0.0203,97.81,36.65
1711780809900,-0.0205,0.7300,0.0205,97.81,36.65
1711780809904,-0.0199,0.7300,0.0235,97.80,36.65
1711780809908,-0.0192,0.7299,0.0285,97.80,36.65
1711780809912,-0.0185,0.7297,0.0339,97.80,36.65
1711780809916,-0.0178,0.7295,0.0382,97.80,36.65
1711780809920,-0.0170,0.7292,0.0400,97.80,36.65
1711780809924,-0.0163,0.7289,0.0388,97.80,36.65
1711780809928,-0.0155,0.7285,0.0350,97.80,36.65
1711780809932,-0.0147,0.7281,0.0297,97.80,36.65
1711780809936,-0.0139,0.7276,0.0245,97.80,36.65
1711780809940,-0.0131,0.7270,0.0210,97.80,36.65
1711780809944,-0.0123,0.7264,0.0201,97.80,36.65
1711780809948,-0.0115,0.7257,0.0221,97.80,36.65
1711780809952,-0.0106,0.7249,0.0266,97.80,36.65
1711780809956,-0.0098,0.7240,0.0320,97.80,36.65
1711780809960,-0.0089,0.7231,0.0368,97.80,36.65
1711780809964,-0.0080,0.7221,0.0397,97.80,36.65
1711780809968,-0.0072,0.7210,0.0396,97.80,36.65
1711780809972,-0.0063,0.7199,0.0367,97.80,36.65
1711780809976,-0.0054,0.7186,0.0318,97.80,36.65
1711780809980,-0.0045,0.7173,0.0263,97.80,36.65
1711780809984,-0.0036,0.7159,0.0220,97.80,36.65
1711780809988,-0.0027,0.7143,0.0200,97.80,36.65
1711780809992,-0.0018,0.7127,0.0211,97.80,36.65
1711780809996,-0.0009,0.7110,0.0247,97.79,36.65
1711780810000,0.0000,0.7091,0.0300,97.79,36.65
1711780810004,0.0009,0.7072,0.0353,97.79,36.65
1711780810008,0.0018,0.7051,0.0389,97.79,36.65
1711780810012,0.0027,0.7030,0.0400,97.79,36.65
1711780810016,0.0036,0.7007,0.0380,97.79,36.65
1711780810020,0.0045,0.6983,0.0337,97.79,36.65
1711780810024,0.0054,0.6957,0.0282,97.79,36.65
1711780810028,0.0063,0.6931,0.0233,97.79,36.65
1711780810032,0.0072,0.6903,0.0204,97.79,36.65
1711780810036,0.0080,0.6874,0.0203,97.79,36.65
1711780810040,0.0089,0.6844,0.0232,97.79,36.65
1711780810044,0.0096,0.6813,0.0280,97.79,36.65
1711780810048,0.0102,0.6780,0.0334,97.79,36.65
1711780810052,0.0103,0.6746,0.0379,97.79,36.65
1711780810056,0.0095,0.6710,0.0399,97.79,36.65
1711780810060,0.0069,0.6674,0.0391,97.79,36.65
1711780810064,0.0015,0.6636,0.0355,97.79,36.65
1711780810068,-0.0077,0.6596,0.0304,97.79,36.65
1711780810072,-0.0213,0.6556,0.0254,97.79,36.65
1711780810076,-0.0383,0.6514,0.0225,97.79,36.65
1711780810080,-0.0564,0.6471,0.0236,97.79,36.65
1711780810084,-0.0716,0.6426,0.0304,97.79,36.65
1711780810088,-0.0794,0.6381,0.0442,97.78,36.65
1711780810092,-0.0751,0.6334,0.0653,97.78,36.65
1711780810096,-0.0504,0.6286,0.0923,97.78,36.65
1711780810100,0.0124,0.6237,0.1207,97.78,36.65
1711780810104,0.1440,0.6187,0.1440,97.78,36.65
1711780810108,0.3713,0.6135,0.1552,97.78,36.65
